-86.943
-86.673
-94.761
-94.761
-94.492
-95.031
-102.31
-93.413
-95.57
-101.23
-94.492
-102.85
-101.5
-101.77
-101.5
-101.5
-101.5
-100.96
-102.04
-96.918
-96.109
-98.266
-91.796
-91.796
-97.727
-96.648
-91.526
-92.335
-92.874
-86.673
-83.708
-83.169
-89.909
-92.065
-91.526
-91.526
-91.796
-90.448
-99.075
-91.526
-98.805
-91.526
-90.717
-90.717
-90.717
-90.717
-90.178
-82.09
-82.36
-82.09
-82.09
-81.821
-83.169
-90.717
-89.639
-89.639
-89.639
-89.639
-89.369
-89.369
-89.369
-89.1
-89.369
-88.021
-93.683
-93.144
-88.561
-84.247
-79.664
-80.473
-80.473
-79.394
-85.865
-88.561
-87.752
-88.021
-87.752
-87.752
-87.752
-87.482
-88.021
-79.934
-79.125
-79.125
-79.125
-79.125
-78.855
-78.855
-78.586
-78.855
-77.777
-71.037
-78.046
-70.498
-79.664
-76.429
-69.419
-69.689
-72.115
-78.855
-77.507
-77.777
-77.777
-77.507
-77.777
-76.698
-81.282
-86.134
-85.056
-85.325
-85.056
-85.056
-84.786
-84.786
-84.786
-84.517
-84.517
-84.517
-84.247
-84.247
-84.247
-83.978
-83.978
-83.708
-84.247
-75.89
-75.62
-75.62
-83.438
-75.351
-83.438
-74.542
-75.351
-75.081
-75.351
-73.733
-66.184
-66.993
-66.184
-68.611
-75.89
-71.576
-66.184
-63.488
-57.827
-55.67
-46.234
-37.338
-33.294
-33.294
-38.147
-42.73
-40.573
-47.043
-50.278
-49.469
-50.009
-48.661
-56.209
-56.479
-69.959
-81.012
-81.012
-88.561
-89.639
-89.1
-89.369
-81.282
-80.742
-80.742
-80.473
-72.115
-63.758
-56.209
-55.67
-47.852
-46.774
-40.573
-48.93
-48.661
-60.253
-75.62
-81.012
-77.777
-68.611
-60.792
-51.626
-47.043
-46.774
-51.357
-56.209
-55.131
-55.401
-55.401
-54.322
-59.714
-68.341
-77.238
-78.586
-84.517
-92.065
-108.51
-110.4
-118.49
-111.21
-117.95
-111.21
-110.13
-110.4
-102.31
-93.953
-102.04
-101.23
-93.683
-101.5
-92.874
-92.335
-85.595
-92.605
-83.978
-85.056
-84.786
-84.786
-84.517
-84.247
-85.325
-80.473
-79.394
-81.012
-79.125
-81.282
-74.811
-76.159
-75.62
-75.62
-75.89
-74.272
-81.551
-78.316
-74.542
-75.351
-75.081
-75.081
-74.811
-74.811
-74.811
-74.542
-75.351
-66.724
-74.003
-74.542
-74.272
-74.272
-74.272
-82.09
-74.003
-81.821
-73.194
-73.733
-74.811
-82.36
-81.821
-79.934
-72.655
-73.463
-73.194
-73.194
-72.924
-72.924
-72.924
-72.655
-72.924
-71.846
-76.698
-81.282
-80.203
-80.473
-80.473
-79.934
-81.551
-72.655
-83.708
-83.708
-72.924
-71.576
-71.576
-71.576
-71.576
-70.767
-78.855
-79.394
-79.394
-78.855
-87.213
-78.855
-86.943
-78.855
-86.673
-78.046
-78.855
-78.046
-79.664
-86.943
-86.134
-86.134
-86.134
-85.595
-88.291
-94.761
-93.683
-93.683
-93.683
-93.413
-93.413
-93.413
-93.144
-92.874
-93.953
-88.021
-84.247
-84.786
-84.517
-84.517
-84.517
-84.247
-84.517
-83.438
-90.987
-92.065
-92.605
-84.517
-84.247
-75.62
-83.438
-75.62
-75.351
-75.351
-75.081
-75.081
-74.811
-75.89
-82.36
-75.081
-83.169
-83.978
-90.178
-79.664
-73.733
-74.542
-74.003
-74.811
-71.307
-65.106
-66.184
-65.645
-65.915
-64.836
-69.959
-74.272
-73.463
-73.463
-73.463
-73.194
-73.194
-73.194
-73.194
-72.924
-73.194
-72.115
-79.664
-81.012
-80.473
-80.473
-80.473
-80.473
-80.203
-80.203
-80.203
-80.203
-79.664
-71.846
-80.203
-79.664
-78.855
-71.037
-71.307
-73.194
-78.586
-70.228
-71.307
-71.576
-68.071
-64.567
-72.655
-67.532
-61.062
-66.724
-70.498
-74.542
-79.394
-78.316
-78.316
-78.316
-77.507
-82.63
-92.335
-93.953
-95.57
-80.473
-83.438
-86.134
-85.325
-85.595
-85.325
-85.056
-85.595
-77.507
-76.968
-76.968
-68.611
-68.88
-68.611
-69.15
-76.968
-76.429
-76.429
-76.159
-76.159
-76.159
-75.62
-77.507
-86.943
-92.605
-91.257
-93.953
-103.12
-110.94
-119.02
-127.38
-134.66
-147.06
-163.24
-185.08
-204.49
-225.78
-245.46
-261.91
-272.42
-280.51
-282.67
-281.59
-282.13
-274.85
-266.76
-251.4
-228.21
-187.5
-154.34
-105.55
-55.94
1.4838
59.177
116.6
175.1
248.43
306.66
379.72
436.88
501.31
547.68
586.23
618.85
646.89
663.34
669.54
651.74
642.85
618.58
582.46
554.69
520.72
487.56
481.63
483.52
473.27
456.29
430.14
391.05
343.33
293.45
242.77
199.64
157.58
123.88
83.44
49.202
14.963
-2.021
-34.103
-51.896
-68.071
-84.517
-100.96
-109.05
-117.14
-125.23
-133.58
-140.59
-141.13
-148.95
-147.87
-147.87
-147.87
-147.06
-150.3
-153.53
-148.68
-155.96
-155.42
-151.11
-148.95
-155.69
-153.26
-158.39
-162.7
-161.62
-161.89
-161.35
-162.43
-155.69
-153.26
-147.06
-144.1
-144.64
-144.64
-143.56
-151.11
-151.65
-158.92
-160
-159.46
-159.46
-159.19
-158.92
-158.92
-158.66
-158.66
-158.39
-158.12
-159.19
-165.39
-158.39
-165.13
-156.5
-157.58
-156.77
-157.58
-154.34
-147.87
-147.87
-152.18
-152.99
-150.57
-155.96
-160
-160.27
-154.61
-154.34
-160.81
-157.58
-160
-157.85
-153.53
-154.34
-154.07
-153.8
-153.8
-153.53
-153.53
-153.26
-152.99
-152.99
-152.72
-152.72
-152.45
-152.18
-160.27
-151.92
-160.27
-160.27
-167.28
-159.73
-167.01
-158.66
-157.31
-151.38
-159.46
-158.39
-157.85
-160.81
-166.2
-169.17
-171.6
-164.05
-166.47
-161.08
-157.31
-151.65
-153.26
-151.65
-153.26
-151.11
-152.45
-156.77
-155.42
-155.69
-154.88
-160.81
-169.98
-171.06
-170.79
-170.52
-170.52
-170.25
-170.25
-169.71
-177.53
-177.53
-177.53
-177.26
-176.72
-168.36
-168.63
-169.44
-175.91
-167.28
-167.82
-169.98
-174.02
-168.36
-176.45
-174.83
-175.1
-174.83
-174.56
-174.29
-174.02
-174.29
-172.94
-178.87
-177.8
-172.4
-173.75
-171.87
-178.61
-179.95
-187.23
-181.84
-186.69
-182.11
-179.14
-179.68
-179.41
-179.14
-179.14
-178.34
-186.42
-186.42
-186.42
-186.15
-193.97
-185.61
-193.97
-193.16
-193.16
-192.89
-192.62
-192.62
-192.08
-193.7
-201.25
-197.48
-190.74
-191.55
-191.01
-191.01
-190.74
-190.47
-190.47
-190.2
-189.93
-189.93
-189.66
-189.39
-189.12
-189.93
-183.46
-179.95
-180.49
-180.22
-179.95
-179.95
-179.68
-179.41
-179.41
-179.14
-178.87
-178.61
-178.87
-170.52
-170.25
-169.98
-169.71
-169.71
-169.44
-169.44
-168.09
-161.62
-168.36
-159.73
-160.54
-160.54
-158.12
-151.11
-151.92
-152.18
-148.41
-143.29
-138.97
-138.44
-139.24
-137.63
-143.29
-143.02
-137.36
-134.12
-129
-124.96
-125.76
-125.5
-124.96
-126.3
-117.68
-123.88
-118.49
-116.33
-116.33
-116.87
-108.78
-108.24
-100.42
-92.065
-91.796
-99.614
-91.257
-91.526
-91.257
-91.257
-91.257
-90.987
-90.717
-92.065
-101.23
-107.7
-104.47
-97.727
-98.536
-98.266
-98.266
-97.996
-97.996
-97.996
-97.457
-98.805
-92.605
-93.144
-98.266
-97.188
-96.918
-98.266
-90.448
-94.222
-97.188
-97.457
-90.178
-88.021
-88.561
-88.291
-88.021
-88.83
-80.203
-87.482
-88.021
-87.752
-87.752
-87.482
-79.664
-87.213
-79.394
-87.213
-78.316
-79.125
-79.125
-78.316
-81.012
-85.325
-79.664
-88.291
-83.708
-77.507
-78.316
-78.316
-77.238
-82.63
-81.821
-81.821
-82.36
-76.968
-76.698
-83.438
-81.012
-76.698
-77.507
-77.238
-77.238
-76.159
-83.438
-85.325
-84.786
-84.786
-84.786
-84.517
-84.517
-84.517
-84.247
-84.247
-83.978
-75.89
-76.159
-75.62
-76.698
-83.169
-76.159
-82.899
-76.159
-82.899
-74.272
-74.811
-78.046
-81.012
-76.429
-85.056
-78.855
-77.238
-83.978
-81.551
-86.404
-92.065
-85.865
-81.551
-82.36
-82.09
-82.09
-81.821
-81.821
-81.821
-81.551
-82.63
-74.272
-79.934
-81.821
-81.282
-81.012
-81.551
-73.194
-80.742
-81.012
-80.742
-80.742
-81.012
-88.83
-88.291
-88.561
-88.291
-88.561
-86.404
-81.282
-86.673
-81.012
-86.673
-78.586
-79.125
-82.899
-84.517
-82.36
-84.247
-82.36
-84.247
-78.046
-78.046
-84.517
-81.821
-83.708
-82.36
-77.507
-78.855
-77.238
-85.325
-79.394
-85.056
-79.125
-84.247
-86.134
-85.595
-85.865
-85.325
-93.144
-93.413
-93.413
-85.056
-85.056
-85.056
-85.056
-84.786
-84.786
-84.517
-85.056
-82.899
-77.238
-85.325
-84.517
-82.09
-75.081
-76.159
-75.89
-75.89
-75.89
-74.542
-80.203
-79.394
-79.664
-79.125
-79.664
-79.394
-74.272
-75.351
-74.811
-74.811
-74.811
-74.811
-74.542
-74.542
-74.542
-74.542
-74.272
-74.272
-74.272
-74.272
-73.733
-82.09
-74.003
-82.09
-81.551
-73.463
-73.733
-73.463
-73.463
-73.463
-73.194
-73.194
-73.194
-72.924
-72.924
-72.655
-73.463
-69.419
-66.724
-73.733
-72.115
-72.655
-72.385
-72.385
-72.115
-72.115
-72.115
-72.115
-71.846
-71.846
-71.846
-71.846
-71.576
-71.576
-71.307
-72.115
-64.836
-62.41
-70.498
-71.307
-71.037
-71.037
-71.037
-70.767
-70.767
-70.767
-70.767
-70.498
-70.767
-69.689
-61.601
-62.41
-62.14
-62.14
-62.14
-61.871
-61.871
-61.871
-61.871
-61.601
-61.601
-61.601
-61.601
-61.332
-61.601
-60.523
-65.645
-69.959
-68.88
-69.15
-69.15
-68.88
-68.88
-68.88
-68.88
-68.611
-68.611
-68.611
-68.611
-68.341
-68.611
-67.802
-76.159
-68.611
-68.071
-68.071
-67.802
-67.802
-67.532
-59.444
-59.444
-60.523
-66.724
-59.984
-66.993
-57.827
-61.332
-68.071
-66.993
-66.993
-66.993
-66.993
-66.993
-66.724
-66.724
-66.724
-66.724
-66.454
-66.454
-66.454
-66.454
-66.184
-66.184
-66.184
-66.184
-65.915
-66.184
-65.106
-72.385
-74.003
-74.272
-66.454
-65.376
-65.376
-65.376
-65.376
-65.106
-65.106
-65.106
-65.106
-64.836
-64.836
-64.567
-65.915
-71.846
-65.376
-71.846
-65.106
-73.463
-72.655
-69.419
-66.454
-69.689
-66.454
-69.419
-65.915
-74.003
-66.993
-66.993
-72.655
-71.307
-71.307
-72.655
-65.106
-68.88
-66.454
-62.41
-63.219
-63.219
-62.14
-69.419
-71.037
-71.576
-62.949
-69.689
-70.767
-70.498
-70.498
-70.228
-70.228
-70.228
-70.498
-78.046
-69.419
-69.959
-69.689
-69.689
-69.689
-69.419
-70.228
-66.993
-63.219
-67.532
-63.219
-67.802
-59.984
-61.332
-60.792
-60.792
-60.792
-60.792
-61.062
-59.444
-66.184
-64.297
-59.984
-59.714
-65.645
-69.689
-62.14
-59.714
-60.253
-59.984
-59.984
-59.984
-59.175
-67.263
-67.802
-67.532
-67.532
-67.532
-75.62
-75.351
-75.351
-75.081
-75.89
-82.899
-74.542
-74.003
-66.184
-66.993
-66.724
-66.724
-66.454
-66.454
-66.454
-66.454
-66.184
-66.454
-65.376
-69.689
-74.811
-73.733
-74.003
-73.733
-73.733
-73.733
-73.733
-73.463
-73.463
-73.463
-73.194
-73.194
-72.924
-73.733
-66.184
-64.028
-72.115
-73.194
-72.385
-80.473
-80.742
-80.473
-80.473
-80.473
-80.203
-80.203
-80.742
-88.83
-86.943
-79.125
-80.473
-77.507
-73.194
-78.046
-73.194
-77.507
-73.194
-77.777
-69.419
-74.542
-80.742
-74.272
-74.003
-79.664
-79.394
-74.003
-69.959
-70.498
-71.307
-64.836
-61.601
-62.14
-62.14
-61.871
-61.871
-61.871
-61.871
-61.601
-62.14
-54.053
-53.513
-53.513
-53.244
-53.244
-53.513
-61.332
-52.705
-52.974
-53.783
-61.601
-60.792
-61.062
-60.792
-60.792
-60.792
-59.984
-63.488
-66.993
-59.444
-60.792
-60.253
-60.253
-60.253
-59.444
-63.488
-72.924
-77.507
-71.037
-67.263
-68.071
-67.802
-67.532
-67.532
-67.532
-67.532
-66.993
-68.341
-59.444
-66.454
-60.253
-58.905
-58.905
-58.905
-58.636
-66.724
-58.636
-66.993
-66.454
-66.454
-67.263
-73.733
-67.802
-82.63
-73.463
-72.924
-65.106
-66.454
-65.106
-68.611
-72.115
-64.567
-65.915
-65.645
-64.567
-70.228
-69.15
-69.419
-68.88
-69.959
-68.071
-70.228
-67.532
-70.498
-66.993
-69.959
-73.194
-72.655
-72.385
-73.463
-64.567
-71.846
-64.567
-71.846
-64.297
-71.576
-71.846
-79.934
-79.934
-88.021
-96.648
-112.82
-120.37
-129.54
-145.44
-153.53
-172.4
-195.32
-213.11
-236.03
-254.36
-275.12
-281.59
-286.98
-287.25
-279.7
-265.14
-255.98
-228.75
-201.25
-162.16
-120.91
-80.203
-28.711
19.816
73.735
138.71
198.02
261.1
327.42
392.66
458.72
518.3
561.16
594.32
626.13
659.29
675.74
691.64
683.02
665.76
640.42
614.27
572.21
539.05
506.97
492.14
484.06
473.54
456.83
435.26
388.89
339.02
289.41
239
192.36
151.11
112.83
81.014
46.776
17.929
-5.7953
-31.946
-50.278
-73.194
-86.943
-100.96
-106.08
-110.4
-120.1
-121.72
-121.18
-121.18
-121.18
-120.37
-128.19
-128.46
-136.01
-136.55
-136.28
-136.28
-136.01
-136.01
-135.74
-136.28
-143.29
-135.74
-142.75
-135.74
-142.48
-134.12
-133.31
-125.5
-126.57
-126.3
-125.5
-129
-134.12
-136.82
-141.94
-144.91
-150.03
-149.76
-144.91
-140.05
-140.86
-140.59
-140.59
-140.32
-140.32
-139.24
-145.98
-148.14
-147.6
-147.6
-147.6
-146.52
-154.34
-154.88
-155.15
-146.79
-146.25
-146.25
-146.25
-145.98
-145.71
-145.71
-145.44
-145.44
-144.91
-146.25
-153.53
-152.72
-152.18
-154.88
-158.92
-151.11
-152.45
-151.92
-151.65
-151.65
-151.38
-151.38
-151.11
-150.84
-151.11
-149.76
-155.15
-160
-152.72
-149.49
-150.03
-149.76
-149.49
-149.49
-148.95
-150.03
-141.4
-147.6
-148.68
-148.95
-140.32
-147.87
-148.14
-147.87
-147.6
-147.6
-147.33
-147.33
-147.06
-147.06
-146.52
-147.87
-155.42
-154.34
-154.34
-154.07
-154.07
-153.8
-153.53
-153.53
-153.26
-153.53
-151.92
-157.58
-156.77
-155.96
-161.08
-160.81
-155.15
-151.38
-151.11
-157.04
-160
-159.19
-159.19
-159.19
-158.12
-165.39
-166.74
-166.74
-158.92
-157.85
-157.85
-157.58
-157.31
-165.39
-157.04
-157.04
-157.31
-164.32
-156.5
-165.13
-164.05
-164.05
-163.78
-164.32
-161.08
-156.77
-163.78
-165.39
-171.87
-170.52
-170.52
-170.52
-169.17
-175.1
-173.75
-173.21
-178.61
-177.26
-177.26
-176.99
-176.72
-176.72
-176.45
-176.18
-176.18
-175.91
-175.64
-175.64
-175.37
-175.1
-175.1
-174.83
-174.29
-182.38
-182.38
-182.11
-182.11
-181.3
-173.75
-181.3
-172.4
-172.94
-174.02
-181.3
-180.76
-178.61
-171.33
-172.13
-171.87
-171.33
-172.13
-168.09
-162.16
-163.24
-162.43
-163.24
-158.12
-153.53
-154.07
-154.07
-152.45
-159.73
-156.5
-152.45
-153.26
-152.72
-152.72
-152.45
-152.45
-152.18
-152.18
-151.92
-152.18
-143.83
-143.56
-135.47
-135.2
-126.84
-126.84
-126.57
-126.57
-126.3
-126.57
-124.96
-117.68
-116.6
-108.78
-109.86
-109.32
-109.32
-109.86
-106.35
-100.15
-100.96
-100.69
-100.42
-101.5
-95.57
-95.84
-101.23
-99.614
-101.23
-93.683
-97.457
-94.492
-91.796
-85.595
-82.899
-83.438
-83.169
-83.169
-82.899
-82.899
-82.899
-82.899
-82.63
-82.63
-82.63
-82.36
-82.36
-82.36
-82.09
-82.09
-81.821
-82.36
-80.203
-74.811
-81.012
-72.655
-73.194
-76.159
-79.125
-75.351
-79.664
-71.846
-73.194
-72.924
-72.655
-73.733
-67.802
-68.071
-73.463
-72.385
-72.385
-72.385
-72.385
-72.115
-72.924
-65.915
-63.488
-64.028
-63.758
-63.758
-63.758
-63.488
-63.488
-63.488
-63.488
-63.219
-63.219
-63.219
-71.037
-63.219
-71.037
-62.41
-62.949
-63.758
-71.307
-71.037
-68.611
-63.488
-71.576
-70.228
-70.228
-71.037
-66.724
-64.297
-71.037
-70.498
-66.184
-61.062
-61.871
-61.871
-60.523
-67.532
-64.297
-65.915
-70.228
-69.15
-69.419
-69.15
-69.15
-69.15
-68.88
-69.689
-61.062
-68.611
-60.792
-68.341
-60.792
-60.523
-60.523
-60.253
-60.253
-60.792
-68.611
-68.071
-68.071
-68.341
-66.454
-60.523
-68.611
-68.071
-65.106
-61.062
-68.611
-67.532
-66.724
-71.307
-72.924
-66.184
-67.263
-67.263
-65.915
-72.655
-69.689
-72.115
-69.15
-72.385
-68.611
-72.655
-68.071
-73.194
-67.532
-73.194
-67.802
-65.915
-65.376
-74.003
-65.915
-73.733
-65.645
-73.733
-65.376
-65.376
-65.645
-74.003
-72.655
-64.836
-65.376
-65.106
-65.106
-65.106
-64.567
-66.724
-74.272
-69.959
-64.567
-61.601
-57.827
-68.611
-73.733
-68.611
-63.488
-64.567
-63.219
-68.341
-73.463
-66.724
-63.219
-63.758
-63.488
-63.488
-63.488
-63.488
-63.219
-63.488
-62.41
-70.767
-64.297
-62.41
-70.498
-71.307
-62.68
-70.767
-62.68
-71.037
-70.498
-70.498
-70.767
-69.689
-61.601
-62.41
-62.14
-61.871
-62.41
-59.984
-53.244
-53.244
-56.749
-59.984
-51.626
-57.827
-58.636
-52.705
-52.705
-58.366
-57.557
-52.435
-53.513
-52.974
-52.974
-52.974
-52.974
-52.974
-52.974
-52.705
-52.705
-52.705
-52.705
-52.705
-52.435
-52.705
-51.896
-60.523
-52.435
-52.165
-44.078
-52.165
-44.078
-52.705
-51.896
-51.896
-51.896
-51.896
-51.896
-51.626
-51.896
-51.087
-54.322
-57.827
-50.548
-50.817
-55.401
-55.94
-54.592
-56.479
-50.009
-51.357
-51.357
-50.009
-56.479
-55.401
-43.808
-47.852
-51.357
-50.548
-50.548
-50.548
-50.548
-50.548
-50.278
-50.817
-42.999
-42.19
-41.921
-50.009
-50.009
-50.009
-50.009
-49.739
-50.548
-57.557
-50.278
-57.557
-48.93
-49.469
-51.357
-56.749
-48.391
-49.739
-49.2
-49.469
-49.2
-49.2
-49.2
-49.2
-49.2
-48.93
-48.93
-48.93
-48.93
-48.93
-48.661
-48.661
-48.661
-48.661
-48.661
-48.661
-48.391
-48.391
-48.391
-48.391
-48.391
-48.122
-48.122
-48.122
-48.122
-48.122
-48.122
-47.852
-47.852
-47.852
-47.852
-47.582
-48.93
-55.131
-47.852
-56.479
-55.67
-53.244
-48.661
-56.479
-55.131
-54.592
-58.905
-59.984
-58.097
-60.523
-54.053
-54.053
-59.984
-58.905
-54.592
-50.009
-46.234
-45.695
-52.974
-49.2
-45.695
-46.504
-46.504
-45.426
-52.974
-54.322
-54.053
-54.053
-54.053
-54.053
-53.783
-53.783
-53.783
-45.695
-45.695
-45.965
-54.053
-52.705
-44.886
-45.156
-46.504
-54.053
-52.974
-53.244
-53.244
-53.244
-52.974
-52.974
-52.974
-52.974
-52.974
-52.705
-52.705
-52.974
-51.896
-56.749
-62.14
-55.401
-51.896
-52.435
-52.165
-52.165
-52.165
-52.165
-52.165
-51.896
-51.896
-51.896
-52.165
-51.087
-59.714
-51.896
-59.714
-51.626
-51.626
-51.357
-51.357
-51.357
-51.087
-52.435
-58.636
-51.626
-58.905
-49.469
-53.513
-57.288
-51.896
-59.984
-58.636
-58.905
-58.636
-58.366
-59.444
-53.783
-54.322
-55.131
-49.469
-49.739
-54.861
-58.905
-57.827
-58.097
-58.097
-57.557
-58.905
-50.548
-56.749
-50.817
-56.209
-57.827
-57.557
-57.018
-65.106
-65.376
-65.376
-65.106
-73.463
-73.194
-73.194
-72.924
-72.924
-73.194
-71.846
-64.028
-64.836
-64.836
-62.68
-55.67
-56.479
-56.209
-56.479
-55.67
-58.905
-65.645
-60.523
-54.322
-59.984
-64.567
-63.758
-62.68
-69.689
-66.184
-68.88
-66.724
-62.41
-64.297
-57.018
-54.592
-56.209
-47.582
-53.513
-55.131
-54.861
-54.592
-55.131
-46.504
-54.592
-46.504
-54.592
-46.234
-46.504
-46.774
-54.861
-54.053
-54.322
-54.053
-54.053
-54.053
-54.053
-54.053
-53.783
-54.592
-50.548
-47.852
-54.861
-53.244
-53.513
-53.783
-52.435
-58.636
-57.557
-52.435
-53.244
-54.053
-47.852
-44.347
-45.156
-44.886
-45.156
-44.078
-51.357
-52.974
-52.705
-52.165
-59.984
-60.792
-60.523
-60.253
-68.341
-60.253
-52.165
-52.165
-51.896
-52.705
-60.523
-59.984
-59.984
-60.253
-57.827
-52.705
-60.792
-59.444
-59.444
-60.253
-55.94
-53.513
-60.523
-58.905
-59.444
-59.175
-59.175
-59.175
-58.636
-59.984
-52.974
-55.401
-59.444
-58.636
-58.636
-58.636
-58.636
-58.366
-58.366
-58.366
-58.366
-58.366
-57.827
-65.645
-66.454
-58.097
-57.827
-66.184
-74.003
-74.003
-82.63
-90.717
-98.805
-106.89
-114.71
-124.15
-141.4
-157.04
-175.91
-198.55
-216.08
-242.5
-263.53
-280.24
-289.95
-288.6
-284.56
-277.01
-259.21
-238.72
-213.38
-179.68
-140.59
-105.55
-61.871
-12.266
44.08
94.224
156.77
216.89
273.23
337.67
403.72
462.22
512.09
553.61
586.5
610.77
634.76
658.48
649.05
639.88
613.19
579.22
546.06
510.75
471.93
458.18
451.98
448.47
430.14
411.81
383.77
347.1
305.05
262.99
225.79
188.85
151.11
114.44
75.622
47.854
24.938
-7.1432
-28.98
-51.357
-64.567
-78.046
-89.1
-97.457
-98.536
-105.28
-107.16
-106.08
-113.09
-122.53
-114.44
-121.72
-122.26
-121.99
-121.72
-121.72
-121.99
-129.27
-121.45
-129.81
-129
-128.73
-130.08
-137.9
-134.39
-129.54
-137.9
-133.58
-127.11
-128.46
-126.84
-131.7
-132.23
-130.08
-136.28
-134.93
-135.2
-134.93
-134.66
-134.93
-133.58
-139.78
-142.75
-141.94
-141.94
-141.67
-141.67
-141.4
-141.4
-141.13
-141.13
-140.86
-140.86
-140.59
-140.59
-140.32
-140.32
-139.78
-131.97
-140.32
-139.51
-139.51
-139.24
-139.24
-138.97
-138.97
-138.71
-138.71
-138.44
-138.44
-138.17
-138.17
-137.9
-137.9
-136.82
-141.4
-145.98
-146.25
-139.51
-141.67
-140.59
-136.01
-135.47
-143.02
-138.17
-141.4
-144.64
-143.56
-143.83
-143.56
-143.29
-143.29
-143.02
-143.02
-142.75
-142.75
-142.48
-142.48
-150.3
-149.76
-141.67
-141.67
-142.21
-150.03
-149.49
-147.87
-140.32
-140.59
-142.48
-149.49
-148.14
-148.41
-148.14
-148.14
-147.87
-147.6
-147.6
-147.33
-147.33
-147.06
-147.33
-145.71
-152.72
-149.22
-150.84
-155.15
-153.53
-154.88
-147.6
-145.18
-145.44
-145.44
-144.64
-152.18
-152.99
-152.72
-152.18
-160.54
-152.18
-160
-151.92
-160.27
-159.46
-159.46
-159.46
-158.92
-160.54
-166.2
-158.12
-156.5
-151.38
-159.19
-157.58
-157.85
-157.58
-157.58
-157.58
-156.5
-160.81
-165.66
-164.59
-164.59
-164.59
-162.97
-170.25
-166.47
-168.36
-172.4
-171.06
-171.6
-169.98
-178.07
-172.4
-170.25
-170.52
-170.25
-169.44
-177.53
-177.8
-177.8
-169.17
-177.26
-168.63
-169.17
-176.99
-176.45
-176.45
-176.18
-175.91
-175.64
-175.64
-175.37
-175.37
-174.83
-175.37
-172.13
-165.66
-166.47
-166.2
-165.66
-166.47
-161.62
-156.77
-156.23
-162.43
-160.81
-155.96
-156.77
-156.23
-156.23
-156.23
-155.69
-156.77
-148.14
-154.61
-148.68
-146.79
-147.06
-146.79
-146.52
-146.52
-146.25
-146.25
-137.63
-130.08
-137.63
-129.27
-128.73
-120.64
-121.18
-120.91
-121.18
-119.02
-111.48
-113.36
-109.32
-106.35
-110.4
-102.85
-104.2
-103.66
-103.39
-104.47
-98.266
-99.614
-99.614
-94.222
-95.3
-94.761
-94.492
-95.57
-88.561
-86.134
-85.595
-92.874
-94.222
-94.761
-86.404
-92.874
-93.953
-94.222
-85.595
-93.413
-93.413
-93.413
-85.325
-93.144
-85.325
-92.874
-85.325
-92.335
-85.325
-92.065
-84.786
-93.953
-89.909
-84.247
-81.551
-77.777
-85.056
-83.708
-83.978
-83.708
-83.708
-83.438
-83.438
-83.438
-83.169
-83.169
-82.899
-84.247
-76.698
-79.934
-83.438
-82.63
-82.36
-83.438
-74.811
-81.821
-74.811
-81.821
-74.272
-81.821
-74.003
-81.551
-81.821
-81.821
-81.551
-81.551
-81.551
-81.282
-81.282
-81.282
-81.012
-81.012
-81.012
-80.742
-81.282
-78.586
-71.846
-72.655
-72.655
-71.576
-76.429
-77.507
-71.037
-72.385
-71.846
-71.846
-71.846
-71.846
-71.307
-72.655
-65.106
-68.611
-72.115
-71.307
-71.307
-71.307
-71.037
-71.037
-71.037
-71.037
-70.767
-70.767
-70.767
-70.767
-70.498
-78.586
-78.316
-78.316
-78.316
-78.316
-78.046
-78.046
-78.046
-77.777
-77.777
-77.777
-77.507
-77.507
-77.507
-77.507
-77.238
-77.238
-77.238
-76.968
-76.968
-76.968
-76.968
-76.698
-76.698
-76.968
-75.351
-82.63
-79.394
-75.89
-75.351
-83.169
-78.046
-75.89
-75.081
-83.438
-76.698
-75.62
-75.081
-83.438
-75.62
-75.351
-75.351
-75.081
-75.081
-74.811
-75.62
-83.708
-81.821
-74.003
-74.811
-74.542
-74.542
-74.003
-76.429
-82.899
-82.63
-78.855
-76.159
-82.899
-82.36
-78.316
-72.924
-73.733
-73.733
-72.385
-79.125
-76.968
-72.385
-73.463
-72.924
-72.924
-72.924
-72.655
-73.733
-65.106
-71.846
-65.915
-63.488
-72.385
-64.297
-72.115
-64.297
-72.115
-64.028
-64.028
-63.758
-63.758
-63.758
-63.758
-63.488
-64.567
-72.655
-69.15
-64.297
-72.115
-71.576
-68.88
-62.14
-63.219
-63.219
-61.871
-66.993
-67.802
-61.601
-62.68
-62.68
-61.332
-68.341
-65.106
-66.724
-71.037
-69.689
-71.037
-64.028
-60.523
-69.15
-63.219
-61.332
-61.601
-61.601
-61.062
-69.15
-69.689
-61.332
-61.332
-61.062
-61.332
-69.419
-68.88
-69.15
-68.88
-68.88
-69.15
-66.993
-61.332
-70.228
-65.645
-62.41
-66.993
-59.175
-60.523
-59.984
-59.984
-60.253
-58.905
-64.836
-64.297
-58.905
-59.984
-59.444
-59.714
-59.444
-59.444
-59.444
-59.444
-59.175
-59.175
-59.175
-59.175
-59.175
-58.905
-59.444
-51.357
-50.817
-50.548
-58.636
-58.636
-58.636
-58.636
-58.366
-58.366
-58.097
-59.444
-65.376
-58.636
-66.993
-65.645
-66.184
-65.645
-66.724
-62.41
-60.253
-63.758
-56.209
-58.636
-53.513
-48.661
-48.661
-53.513
-58.097
-57.018
-57.288
-57.018
-57.018
-57.018
-57.018
-56.749
-57.018
-55.67
-64.028
-57.827
-56.479
-55.94
-63.758
-64.297
-64.567
-56.479
-56.209
-56.209
-55.94
-55.94
-55.94
-55.94
-55.67
-55.67
-55.67
-55.67
-55.67
-55.401
-55.67
-54.861
-57.827
-64.028
-64.028
-59.175
-58.366
-59.984
-57.557
-64.028
-62.68
-62.949
-62.949
-62.41
-63.758
-56.479
-59.444
-63.219
-62.14
-62.41
-62.14
-62.14
-62.14
-61.871
-62.68
-54.053
-61.601
-53.783
-61.601
-53.783
-61.601
-53.513
-61.601
-52.974
-53.513
-53.244
-52.974
-54.592
-60.253
-54.053
-59.984
-54.322
-59.444
-54.592
-58.905
-54.322
-61.871
-60.253
-60.792
-60.523
-60.253
-61.332
-55.131
-55.94
-61.062
-59.984
-60.253
-59.984
-59.984
-59.984
-59.984
-59.714
-59.714
-59.714
-59.714
-59.444
-59.444
-59.444
-59.444
-59.175
-59.444
-51.087
-59.175
-58.905
-59.175
-58.636
-50.278
-51.896
-58.366
-50.009
-50.817
-50.548
-50.548
-50.548
-49.739
-53.513
-56.209
-51.896
-59.444
-57.827
-58.097
-58.097
-58.097
-58.097
-57.827
-58.097
-57.018
-62.949
-65.915
-66.724
-58.905
-63.758
-59.984
-57.018
-56.479
-64.836
-57.827
-64.567
-58.097
-56.749
-57.018
-57.018
-56.749
-64.836
-64.836
-64.567
-64.567
-64.567
-64.567
-64.297
-65.376
-72.924
-71.576
-73.733
-81.012
-79.934
-79.934
-79.934
-79.664
-80.473
-76.429
-70.767
-71.576
-71.307
-71.307
-71.307
-70.767
-72.115
-65.106
-68.341
-66.184
-62.14
-62.14
-68.611
-71.037
-70.498
-70.498
-70.498
-70.228
-70.228
-69.959
-70.498
-62.41
-61.871
-61.871
-61.871
-61.601
-53.244
-53.783
-52.974
-44.617
-46.774
-52.435
-46.234
-52.165
-46.234
-51.896
-46.504
-51.357
-46.234
-54.053
-52.705
-52.974
-52.705
-52.705
-52.705
-52.705
-52.705
-52.435
-52.705
-51.357
-58.636
-54.322
-58.366
-54.322
-57.557
-60.523
-60.792
-52.705
-58.366
-59.984
-60.523
-51.896
-59.175
-59.714
-59.444
-59.444
-59.444
-59.444
-59.444
-59.444
-58.366
-51.357
-59.714
-59.175
-57.827
-50.009
-51.087
-50.278
-52.974
-59.444
-58.366
-58.366
-59.175
-55.131
-49.739
-49.469
-55.131
-54.053
-53.513
-59.175
-57.827
-58.097
-58.097
-57.557
-58.905
-50.817
-56.479
-51.087
-55.67
-58.097
-57.288
-57.557
-57.557
-57.288
-57.827
-49.2
-57.018
-49.2
-57.288
-57.018
-57.018
-56.749
-56.749
-56.749
-56.479
-57.827
-65.376
-64.297
-64.567
-64.028
-66.184
-75.081
-83.169
-91.526
-99.075
-110.13
-128.46
-138.97
-155.42
-176.45
-196.94
-217.97
-232.79
-250.32
-260.83
-268.65
-272.69
-260.29
-241.42
-232.52
-212.3
-178.61
-153.8
-114.44
-73.463
-24.128
17.12
74.005
131.7
189.39
255.17
328.77
394.28
459.25
516.14
572.75
620.2
659.29
690.03
712.13
726.15
729.39
716.99
697.58
668.46
634.76
598.63
553.88
522.61
511.56
503.74
491.34
469.77
439.84
401.83
354.11
305.05
248.43
200.17
168.09
120.91
83.44
51.628
17.659
-8.2216
-32.215
-58.097
-67.263
-83.169
-91.796
-99.884
-99.884
-107.97
-107.97
-115.79
-116.06
-123.88
-123.07
-123.34
-123.07
-122.8
-122.8
-122.26
-124.15
-133.58
-138.97
-138.17
-138.17
-137.9
-137.9
-137.63
-137.63
-137.36
-137.36
-136.28
-141.67
-145.44
-144.64
-144.37
-145.18
-138.44
-135.74
-136.01
-135.74
-135.74
-135.74
-134.93
-142.48
-143.29
-143.29
-135.2
-134.66
-134.66
-134.39
-142.48
-142.21
-141.94
-141.94
-141.67
-141.67
-141.4
-141.4
-141.13
-141.67
-138.17
-134.66
-138.71
-133.85
-141.13
-140.86
-135.74
-135.47
-136.28
-134.12
-141.4
-134.93
-129.81
-135.74
-140.32
-133.58
-129
-136.55
-137.9
-145.18
-140.05
-137.36
-137.9
-137.9
-136.82
-144.64
-145.44
-145.18
-144.91
-144.64
-144.64
-136.55
-144.37
-136.28
-144.64
-143.83
-143.02
-134.93
-135.2
-137.09
-141.94
-136.01
-144.1
-142.48
-142.75
-142.75
-141.67
-145.44
-151.11
-149.49
-150.57
-145.71
-139.78
-145.71
-150.84
-143.83
-140.32
-141.13
-139.78
-146.25
-148.68
-148.14
-148.14
-147.87
-147.6
-147.6
-147.33
-147.33
-147.06
-147.06
-146.79
-146.79
-146.52
-146.25
-146.52
-154.34
-153.8
-153.8
-153.53
-153.53
-153.26
-153.26
-152.45
-155.42
-158.92
-153.8
-161.62
-160
-160.27
-160
-159.73
-159.73
-159.46
-159.46
-158.39
-163.51
-167.55
-166.47
-166.47
-166.2
-166.47
-165.13
-171.6
-174.83
-166.74
-164.86
-165.13
-164.86
-164.86
-164.59
-164.32
-164.32
-164.05
-164.05
-163.78
-171.6
-163.51
-171.6
-171.87
-178.61
-171.06
-179.68
-178.07
-178.61
-176.45
-168.63
-172.13
-178.34
-177.26
-177.26
-176.99
-176.99
-176.45
-177.53
-171.33
-172.4
-172.4
-166.74
-167.82
-167.28
-167.28
-167.01
-166.74
-166.74
-166.47
-166.47
-166.2
-165.93
-165.93
-165.39
-165.93
-157.85
-157.04
-157.04
-156.77
-156.77
-156.5
-156.23
-156.23
-155.96
-155.96
-154.88
-146.79
-147.33
-147.6
-145.44
-138.17
-138.71
-138.97
-136.01
-129.27
-130.08
-130.62
-126.3
-121.45
-118.76
-108.51
-104.74
-105.28
-104.74
-105.81
-99.614
-96.109
-96.379
-97.188
-90.178
-87.752
-88.291
-88.021
-88.021
-87.752
-87.752
-87.482
-88.021
-79.394
-87.213
-79.394
-79.125
-71.037
-78.855
-71.037
-78.855
-69.959
-70.767
-70.498
-70.498
-70.498
-70.228
-70.228
-70.228
-70.228
-69.959
-70.767
-66.184
-64.836
-67.532
-60.523
-61.871
-61.871
-60.523
-66.993
-65.376
-60.523
-61.332
-61.062
-61.062
-61.062
-61.062
-60.792
-60.792
-60.523
-61.601
-52.974
-59.714
-60.792
-60.523
-60.523
-60.253
-60.253
-60.253
-60.253
-59.984
-59.984
-59.984
-60.253
-58.905
-51.087
-51.896
-51.626
-51.087
-54.053
-58.097
-50.548
-51.087
-54.053
-60.253
-58.905
-59.984
-55.67
-49.2
-56.209
-55.131
-50.009
-51.087
-50.817
-50.548
-51.626
-44.078
-48.122
-51.087
-50.278
-50.548
-50.278
-50.278
-50.278
-50.278
-50.278
-50.009
-50.009
-50.009
-50.009
-49.739
-41.921
-49.739
-41.921
-49.469
-41.651
-50.548
-49.2
-49.469
-49.469
-49.469
-49.469
-49.2
-50.009
-45.965
-43.269
-50.278
-48.661
-49.2
-48.93
-48.93
-48.93
-48.93
-48.661
-48.661
-48.93
-47.852
-54.322
-57.018
-56.479
-56.209
-57.018
-49.739
-47.852
-48.122
-48.122
-48.122
-48.122
-47.852
-47.852
-47.852
-47.852
-48.122
-55.67
-47.313
-47.852
-47.582
-47.582
-47.582
-47.582
-47.313
-47.582
-46.774
-50.009
-53.244
-48.661
-56.209
-54.861
-54.861
-55.94
-50.548
-50.009
-55.401
-55.67
-48.93
-51.896
-49.469
-51.087
-54.861
-55.401
-47.582
-52.705
-48.391
-45.695
-46.234
-45.965
-45.965
-45.965
-45.965
-45.965
-45.965
-45.695
-45.695
-45.695
-45.695
-45.426
-46.234
-53.244
-45.965
-53.244
-44.347
-45.695
-45.156
-45.156
-45.156
-45.156
-45.426
-44.078
-48.661
-50.009
-47.852
-50.548
-43.538
-45.695
-40.573
-34.911
-41.382
-45.156
-44.347
-44.617
-44.347
-44.347
-44.347
-44.347
-44.347
-44.347
-44.078
-44.078
-44.078
-44.078
-44.078
-44.078
-43.808
-43.808
-43.808
-43.808
-43.538
-35.181
-35.72
-35.451
-35.451
-35.451
-35.451
-35.451
-35.451
-35.181
-35.72
-33.024
-25.745
-30.059
-36.259
-34.103
-39.495
-39.495
-37.877
-44.078
-42.73
-43.269
-42.46
-44.886
-31.676
-30.868
-35.451
-34.372
-34.642
-34.642
-34.642
-34.642
-34.372
-34.642
-33.833
-42.19
-34.911
-34.103
-34.372
-34.103
-34.103
-34.103
-34.642
-41.921
-33.563
-33.833
-35.181
-41.112
-34.642
-41.382
-32.755
-34.103
-33.563
-33.833
-33.833
-33.563
-34.372
-29.52
-28.172
-34.642
-33.294
-33.563
-33.294
-33.294
-33.294
-33.294
-33.563
-32.215
-39.764
-35.72
-32.485
-33.294
-33.024
-33.024
-33.024
-33.024
-33.024
-33.024
-32.755
-32.755
-32.755
-32.755
-32.755
-41.112
-40.303
-32.215
-32.755
-32.215
-33.563
-41.112
-40.573
-38.955
-31.676
-32.485
-32.215
-32.215
-32.215
-32.215
-32.215
-32.215
-32.215
-31.946
-31.946
-31.946
-31.946
-31.946
-31.946
-31.676
-31.946
-30.868
-37.607
-40.034
-40.573
-32.485
-38.686
-33.294
-31.137
-31.676
-31.407
-31.407
-31.407
-31.407
-31.407
-31.407
-39.225
-31.407
-39.225
-30.598
-31.407
-31.137
-31.137
-30.598
-33.024
-37.607
-31.676
-40.034
-38.686
-38.686
-39.764
-34.911
-33.833
-36.259
-29.789
-30.059
-34.642
-39.225
-39.225
-33.833
-29.789
-30.598
-30.328
-30.328
-30.598
-29.25
-37.607
-31.407
-36.259
-38.686
-38.147
-38.147
-38.147
-38.147
-37.877
-37.877
-37.877
-37.877
-45.965
-37.338
-37.877
-37.877
-36.529
-30.328
-36.799
-30.328
-36.529
-30.059
-38.686
-37.068
-38.147
-34.642
-28.441
-29.52
-29.25
-28.441
-32.755
-37.877
-36.799
-37.068
-36.799
-37.877
-32.215
-27.363
-34.372
-37.338
-36.799
-36.799
-36.799
-36.799
-36.799
-36.529
-36.529
-36.529
-36.529
-36.529
-36.529
-36.529
-36.259
-36.259
-36.259
-36.259
-36.259
-36.259
-36.259
-35.99
-35.99
-35.99
-35.99
-35.99
-35.99
-35.99
-35.181
-38.686
-43.269
-27.632
-21.701
-28.172
-31.137
-36.529
-35.72
-34.372
-41.382
-38.147
-40.573
-38.955
-34.911
-34.372
-42.19
-37.607
-34.911
-34.372
-42.46
-36.529
-34.103
-42.46
-43.269
-42.999
-42.999
-42.73
-42.73
-34.642
-34.911
-34.642
-34.642
-34.642
-34.372
-35.99
-41.651
-35.451
-41.921
-33.294
-34.103
-36.529
-43.269
-41.921
-42.19
-42.19
-42.19
-42.19
-41.921
-42.999
-36.799
-37.877
-41.651
-47.313
-45.695
-40.034
-47.582
-50.278
-49.469
-49.469
-49.739
-48.93
-56.209
-58.366
-50.009
-49.2
-49.2
-49.2
-49.2
-49.2
-48.93
-48.93
-48.93
-48.661
-49.469
-57.557
-55.67
-48.122
-48.391
-50.548
-55.131
-49.2
-58.097
-53.783
-47.582
-48.391
-47.852
-48.93
-44.617
-38.955
-40.842
-35.99
-30.059
-37.338
-35.72
-30.868
-31.946
-31.676
-31.676
-31.676
-31.676
-31.676
-31.407
-31.407
-31.407
-31.407
-31.676
-30.868
-39.225
-31.676
-31.137
-31.137
-39.225
-39.225
-38.955
-39.495
-47.582
-47.043
-47.043
-47.043
-47.043
-46.774
-46.774
-46.774
-46.774
-46.774
-46.504
-47.582
-42.46
-41.921
-42.999
-41.921
-43.538
-37.338
-38.416
-38.147
-38.147
-38.147
-37.877
-38.416
-36.799
-44.886
-40.303
-37.607
-37.338
-44.617
-45.965
-45.695
-45.695
-45.965
-37.877
-37.607
-37.338
-45.426
-37.338
-45.695
-45.156
-45.426
-44.617
-36.259
-38.416
-45.695
-44.886
-45.156
-44.886
-44.886
-44.886
-44.886
-44.886
-44.886
-44.617
-44.617
-44.617
-44.617
-44.347
-44.886
-43.269
-50.278
-47.313
-48.661
-52.974
-52.435
-51.357
-58.366
-59.984
-66.184
-73.463
-90.178
-91.526
-105.81
-114.98
-130.35
-146.79
-163.24
-179.41
-203.95
-228.21
-244.12
-251.93
-260.29
-266.49
-257.33
-247.89
-231.18
-210.69
-180.76
-159.73
-118.76
-81.821
-33.833
11.459
71.309
127.92
188.04
259.75
325.81
385.39
452.78
514.25
565.47
615.35
654.71
679.78
704.85
718.6
713.75
697.31
681.67
649.86
623.98
584.35
548.76
522.34
511.83
512.09
487.56
470.31
436.88
395.09
344.68
286.18
229.56
188.85
148.14
115.79
82.632
49.202
18.199
-6.3345
-28.98
-44.617
-61.062
-78.855
-88.291
-90.448
-96.648
-94.222
-99.614
-102.85
-108.51
-106.35
-106.89
-111.48
-111.75
-104.2
-107.7
-111.21
-109.32
-116.6
-118.49
-117.95
-118.22
-117.14
-124.96
-125.76
-125.5
-125.23
-125.23
-117.14
-124.96
-116.87
-125.23
-124.69
-123.88
-115.79
-116.06
-117.41
-124.42
-125.23
-132.5
-131.97
-128.46
-125.5
-129.54
-121.99
-122.53
-126.03
-131.43
-131.43
-125.5
-125.76
-131.16
-129.81
-130.08
-129.81
-129.54
-129.54
-129.27
-129.27
-129
-129
-128.73
-128.73
-128.46
-128.46
-128.19
-128.19
-128.19
-127.92
-127.92
-127.65
-127.65
-127.38
-127.38
-127.11
-127.11
-126.84
-126.84
-126.57
-126.57
-126.3
-126.3
-126.03
-126.03
-125.76
-125.76
-125.76
-125.23
-126.3
-120.64
-120.1
-126.03
-124.69
-123.88
-129.27
-133.04
-132.23
-132.23
-131.97
-131.97
-131.97
-131.43
-132.23
-124.69
-123.07
-122.53
-130.62
-123.61
-122.53
-122.8
-122.26
-130.35
-130.35
-130.08
-130.35
-137.63
-129.81
-138.44
-137.63
-136.28
-128.19
-130.89
-137.63
-136.55
-136.82
-136.55
-136.28
-136.28
-136.01
-136.01
-135.74
-135.74
-135.47
-135.47
-135.2
-135.2
-135.2
-133.85
-140.32
-142.48
-148.14
-150.84
-150.03
-149.76
-150.57
-143.02
-141.4
-140.86
-149.22
-141.4
-148.41
-148.95
-148.68
-148.68
-140.32
-140.32
-140.59
-148.41
-147.6
-147.6
-147.6
-147.33
-147.33
-147.06
-146.52
-148.95
-155.42
-154.34
-154.34
-154.07
-154.07
-153.8
-153.8
-153.53
-153.26
-153.53
-152.18
-157.58
-161.62
-160.27
-161.62
-153.53
-158.39
-153.8
-157.58
-160.27
-159.46
-159.46
-159.19
-158.92
-158.92
-158.66
-158.66
-158.39
-158.12
-158.12
-149.76
-150.3
-157.58
-148.95
-149.49
-148.95
-148.95
-148.68
-148.68
-148.41
-148.41
-148.14
-148.14
-147.6
-148.68
-143.56
-142.48
-144.64
-138.71
-135.2
-129.81
-130.89
-130.35
-130.35
-130.35
-129.81
-130.89
-124.15
-121.18
-121.45
-122.26
-114.44
-113.36
-106.08
-104.47
-104.74
-104.74
-104.47
-104.47
-96.648
-88.021
-88.021
-88.021
-87.752
-87.752
-87.752
-87.482
-87.752
-86.134
-78.586
-79.394
-79.125
-78.855
-79.394
-76.429
-69.959
-70.767
-70.498
-70.498
-70.498
-70.498
-69.959
-71.037
-65.645
-61.601
-61.332
-66.993
-70.498
-69.419
-70.498
-63.758
-61.062
-61.601
-61.332
-61.332
-61.332
-61.332
-61.062
-61.062
-61.062
-61.062
-60.792
-60.792
-60.792
-61.062
-68.611
-59.984
-60.523
-60.523
-59.444
-51.357
-54.053
-60.792
-60.523
-57.557
-53.513
-61.062
-60.253
-57.018
-50.817
-51.896
-51.626
-51.626
-51.626
-51.626
-51.357
-51.357
-51.357
-51.357
-51.357
-51.087
-51.087
-51.087
-51.087
-51.087
-50.817
-50.817
-50.817
-50.817
-50.548
-51.087
-42.73
-50.278
-50.548
-50.548
-50.548
-50.009
-42.46
-50.009
-42.46
-49.739
-42.46
-51.087
-49.739
-50.009
-50.009
-50.009
-50.009
-49.739
-50.548
-46.504
-41.651
-37.607
-36.259
-42.46
-41.112
-41.382
-41.651
-40.034
-47.313
-43.808
-45.965
-50.009
-48.93
-49.2
-48.661
-50.009
-41.112
-48.391
-41.382
-48.391
-41.112
-48.122
-48.391
-56.479
-56.749
-48.391
-48.391
-48.122
-48.93
-56.209
-47.582
-48.391
-48.122
-48.122
-48.122
-47.852
-47.852
-47.852
-47.852
-47.582
-48.391
-44.617
-38.686
-39.764
-39.495
-39.495
-39.225
-39.495
-38.416
-44.078
-47.852
-47.043
-47.313
-47.043
-47.313
-45.965
-54.322
-48.122
-53.244
-55.131
-54.861
-54.592
-55.401
-46.504
-54.592
-46.774
-46.504
-46.504
-46.504
-45.695
-38.416
-46.774
-45.965
-46.234
-46.504
-44.078
-39.495
-44.617
-38.955
-47.043
-45.695
-45.695
-46.504
-41.921
-40.303
-45.695
-50.009
-50.278
-44.347
-45.695
-45.426
-45.426
-45.156
-45.156
-45.156
-45.156
-45.156
-44.886
-45.695
-38.147
-36.799
-36.259
-44.617
-37.607
-36.529
-36.799
-36.529
-36.529
-36.529
-36.529
-36.529
-36.529
-36.259
-37.338
-43.808
-36.799
-43.808
-35.181
-36.529
-35.99
-35.99
-35.99
-35.99
-35.99
-35.99
-35.99
-35.99
-35.72
-35.72
-35.72
-35.72
-35.451
-36.529
-30.598
-27.093
-26.554
-34.103
-29.25
-33.024
-35.99
-35.181
-35.451
-35.451
-34.642
-42.46
-43.538
-43.269
-43.269
-43.269
-42.999
-42.999
-34.911
-43.269
-42.73
-42.999
-42.73
-42.73
-43.269
-40.842
-35.72
-41.921
-33.294
-34.911
-34.372
-34.372
-34.372
-34.372
-34.372
-34.372
-34.103
-34.911
-30.059
-24.667
-30.598
-35.99
-27.632
-31.676
-28.441
-30.598
-35.451
-27.363
-25.745
-25.206
-32.485
-34.372
-33.024
-41.651
-34.372
-33.563
-33.294
-41.651
-33.563
-41.382
-33.563
-41.382
-32.755
-33.563
-33.294
-33.024
-34.642
-41.921
-41.382
-39.225
-32.215
-33.294
-33.024
-33.024
-33.294
-31.946
-37.338
-37.068
-36.259
-37.877
-31.676
-33.024
-32.215
-33.833
-26.554
-29.52
-32.215
-38.955
-34.911
-31.676
-32.755
-31.407
-40.034
-32.755
-39.764
-33.024
-31.946
-32.215
-32.215
-31.946
-31.946
-31.946
-31.676
-23.319
-24.936
-31.407
-24.128
-32.755
-31.676
-31.676
-32.215
-29.25
-25.476
-29.789
-25.206
-31.946
-34.911
-37.338
-30.598
-30.598
-36.259
-35.181
-34.642
-40.303
-38.955
-39.225
-39.225
-39.225
-39.225
-39.225
-38.955
-38.955
-38.955
-38.955
-38.686
-39.495
-31.407
-31.137
-22.78
-30.328
-30.598
-38.686
-30.598
-30.598
-30.598
-30.328
-31.137
-38.955
-38.416
-38.416
-38.416
-38.416
-38.416
-38.147
-38.147
-37.877
-38.955
-34.642
-32.215
-39.225
-37.607
-38.147
-37.877
-37.877
-37.877
-37.877
-37.877
-37.607
-37.607
-37.607
-37.607
-37.607
-37.607
-37.338
-38.416
-29.789
-36.799
-30.059
-36.259
-37.338
-37.068
-37.068
-37.068
-37.068
-37.068
-37.338
-44.886
-36.529
-37.068
-36.799
-36.799
-36.799
-36.799
-36.799
-36.799
-35.99
-39.495
-42.19
-38.686
-42.73
-35.181
-36.799
-36.259
-36.259
-36.259
-36.259
-36.259
-36.259
-36.259
-35.99
-37.068
-30.328
-27.363
-27.902
-28.172
-26.824
-35.451
-28.441
-35.181
-28.441
-34.911
-35.451
-43.269
-43.808
-43.808
-35.451
-35.451
-35.451
-35.451
-35.451
-35.181
-36.529
-42.46
-35.72
-44.347
-42.999
-43.269
-42.999
-43.538
-40.573
-33.563
-38.147
-43.808
-42.73
-42.999
-42.46
-43.538
-38.416
-34.103
-33.833
-39.495
-43.269
-42.46
-42.46
-42.46
-42.46
-42.46
-42.19
-42.19
-42.19
-42.19
-42.19
-41.921
-42.46
-34.103
-41.651
-41.921
-41.921
-50.009
-50.009
-58.366
-57.557
-57.827
-57.557
-57.557
-57.557
-57.557
-57.557
-57.288
-57.827
-54.861
-48.122
-50.278
-44.886
-44.347
-45.426
-44.617
-45.156
-43.808
-49.739
-48.391
-48.661
-48.661
-48.391
-49.469
-42.73
-40.034
-40.303
-41.112
-33.563
-31.946
-31.407
-39.764
-33.024
-31.946
-31.946
-32.215
-23.858
-31.946
-31.946
-31.946
-31.676
-31.676
-31.676
-31.676
-31.946
-30.059
-24.667
-30.598
-24.397
-32.755
-31.137
-31.676
-31.407
-31.407
-31.407
-31.407
-31.407
-30.598
-35.181
-40.034
-38.955
-39.225
-39.225
-39.225
-38.955
-38.955
-38.955
-38.955
-38.955
-38.955
-38.686
-39.495
-31.946
-29.789
-38.147
-38.686
-38.416
-38.686
-30.598
-30.328
-30.328
-30.598
-38.686
-38.147
-39.225
-45.965
-37.338
-38.416
-38.147
-37.607
-40.573
-44.617
-37.068
-37.338
-41.382
-42.999
-40.573
-43.538
-36.529
-37.877
-37.607
-37.607
-37.607
-37.607
-37.607
-37.068
-38.416
-30.868
-34.642
-37.607
-38.147
-30.328
-34.911
-44.347
-45.426
-45.156
-45.156
-45.156
-44.886
-44.886
-44.886
-44.886
-44.886
-44.886
-53.783
-60.792
-62.14
-78.855
-85.865
-94.492
-102.31
-111.48
-131.16
-154.34
-168.9
-188.85
-211.23
-226.86
-240.34
-247.08
-256.79
-256.79
-246.54
-238.72
-227.4
-200.17
-165.66
-133.31
-95.84
-46.774
-5.5257
54.594
115.79
171.6
236.3
301.54
374.6
442.54
491.88
549.03
590.55
630.99
663.61
687.6
703.24
709.17
691.64
683.02
663.61
628.02
585.42
545.79
525.04
518.03
506.7
489.99
468.69
431.49
386.46
336.05
285.64
239.8
198.02
161.62
123.34
90.989
62.412
33.026
9.5716
-16.309
-35.451
-51.087
-68.611
-78.316
-86.943
-87.752
-94.761
-96.379
-95.84
-95.84
-95.57
-95.57
-95.57
-95.3
-103.39
-103.12
-103.12
-103.12
-102.85
-102.85
-102.58
-102.58
-102.58
-102.31
-102.31
-101.77
-104.2
-110.94
-109.59
-109.86
-109.59
-109.59
-109.59
-108.24
-114.17
-112.82
-113.36
-113.36
-107.97
-107.97
-113.63
-117.14
-116.33
-116.33
-116.06
-116.06
-115.79
-115.79
-115.52
-115.52
-115.52
-115.25
-115.25
-114.98
-114.98
-114.71
-122.8
-114.71
-122.53
-114.17
-123.07
-121.18
-113.36
-113.9
-113.63
-113.9
-111.75
-104.74
-105.01
-107.43
-113.9
-112.55
-112.82
-112.55
-113.63
-107.97
-107.43
-113.36
-112.02
-112.02
-112.02
-111.75
-112.02
-110.67
-117.14
-119.83
-119.29
-118.22
-126.3
-120.37
-118.49
-118.76
-118.49
-118.49
-118.49
-117.95
-126.03
-117.95
-126.03
-125.5
-125.5
-125.5
-125.23
-125.5
-123.88
-116.33
-116.6
-118.22
-125.5
-124.15
-124.15
-124.96
-120.64
-117.95
-124.69
-124.42
-119.29
-118.49
-124.42
-122.8
-123.07
-122.8
-122.8
-122.8
-122.53
-122.26
-123.34
-115.25
-119.83
-122.53
-121.72
-121.72
-121.45
-121.45
-120.91
-128.46
-129.54
-120.91
-128.73
-120.64
-128.73
-128.46
-128.19
-128.73
-136.55
-135.74
-136.01
-135.74
-135.47
-135.47
-135.2
-135.2
-134.93
-134.93
-134.66
-134.66
-134.39
-134.39
-133.31
-137.9
-142.75
-141.94
-140.59
-147.6
-143.83
-146.52
-144.37
-140.05
-140.86
-140.59
-140.59
-140.32
-140.05
-140.32
-139.24
-147.6
-140.32
-139.24
-139.51
-131.43
-130.89
-130.89
-138.97
-138.97
-147.06
-146.25
-146.25
-145.98
-145.98
-146.25
-144.1
-136.82
-137.09
-139.24
-145.98
-144.64
-144.91
-144.64
-144.37
-144.37
-144.1
-144.91
-139.78
-134.93
-135.74
-135.47
-135.2
-135.2
-134.66
-135.74
-128.73
-126.03
-126.57
-126.3
-126.03
-126.57
-118.76
-117.68
-117.68
-117.68
-109.59
-109.05
-109.05
-100.96
-108.78
-100.96
-108.51
-100.15
-99.614
-91.526
-92.335
-92.065
-91.796
-92.605
-89.1
-85.595
-90.717
-79.664
-74.811
-75.62
-74.811
-76.159
-70.498
-69.959
-76.698
-69.959
-65.915
-66.993
-66.184
-67.263
-60.792
-57.827
-58.366
-58.366
-57.288
-65.376
-59.444
-57.557
-58.097
-57.827
-57.827
-57.827
-57.557
-57.557
-57.557
-57.557
-57.557
-57.288
-57.557
-56.209
-49.739
-56.479
-49.2
-58.636
-54.592
-50.009
-57.827
-56.479
-56.749
-56.749
-56.749
-56.479
-56.479
-56.479
-56.209
-57.288
-51.896
-47.582
-48.122
-49.2
-41.921
-44.886
-48.661
-47.582
-48.661
-41.382
-39.225
-40.034
-38.955
-46.774
-47.852
-47.582
-47.582
-47.582
-47.313
-55.401
-47.313
-47.313
-47.043
-47.043
-47.043
-47.043
-47.043
-46.774
-47.313
-44.886
-40.303
-45.695
-37.607
-38.955
-38.416
-38.686
-38.416
-38.416
-38.147
-39.495
-33.563
-33.833
-39.225
-38.147
-38.147
-38.416
-37.068
-44.617
-40.842
-37.607
-37.068
-45.156
-39.764
-37.338
-38.147
-37.068
-45.156
-45.965
-45.695
-45.965
-37.607
-37.607
-37.607
-37.338
-38.416
-53.783
-44.617
-45.426
-45.156
-44.886
-47.043
-52.165
-44.078
-45.156
-44.886
-44.886
-44.886
-44.617
-45.695
-40.573
-39.495
-45.695
-44.617
-43.538
-49.739
-48.391
-43.538
-44.347
-45.156
-38.686
-35.451
-37.068
-30.059
-27.093
-34.103
-43.269
-43.538
-51.626
-44.617
-44.078
-35.99
-43.538
-43.808
-51.626
-43.538
-43.808
-43.538
-43.538
-43.538
-43.269
-44.617
-52.165
-51.087
-51.087
-51.896
-48.661
-44.617
-52.165
-50.817
-50.817
-51.626
-47.313
-41.921
-42.73
-43.808
-37.338
-39.225
-38.955
-32.755
-39.495
-44.078
-35.451
-40.842
-35.72
-40.842
-36.529
-33.024
-41.112
-42.46
-42.19
-41.921
-42.46
-34.103
-33.833
-33.833
-33.833
-33.833
-33.833
-33.833
-33.563
-33.833
-33.294
-34.642
-42.19
-41.382
-41.651
-41.382
-41.382
-41.382
-41.382
-41.382
-41.382
-41.112
-41.921
-37.338
-32.215
-33.294
-33.024
-33.024
-33.024
-32.755
-32.755
-32.755
-32.755
-32.755
-32.485
-33.294
-26.015
-24.128
-24.667
-23.858
-31.676
-32.755
-32.215
-32.755
-24.397
-24.397
-24.128
-16.309
-24.397
-24.936
-31.946
-24.667
-31.946
-23.319
-23.858
-25.745
-33.024
-31.946
-32.215
-31.946
-31.946
-31.946
-31.946
-31.676
-32.485
-28.172
-21.701
-29.25
-26.824
-28.441
-27.632
-23.049
-22.78
-28.98
-32.215
-31.407
-31.407
-31.407
-31.137
-32.215
-23.588
-30.868
-23.588
-30.598
-31.407
-31.407
-23.049
-31.137
-31.137
-30.868
-22.78
-23.049
-23.588
-31.676
-30.598
-31.407
-29.25
-22.241
-22.51
-24.936
-31.676
-30.598
-30.868
-30.868
-30.328
-31.676
-25.745
-26.824
-26.284
-26.824
-25.745
-27.093
-26.284
-21.432
-22.51
-22.51
-21.162
-29.52
-23.319
-29.25
-23.049
-29.25
-23.319
-21.701
-22.241
-21.971
-21.971
-21.971
-21.971
-30.059
-21.971
-30.059
-21.432
-21.971
-22.78
-30.598
-29.789
-29.52
-31.676
-36.529
-29.25
-27.093
-23.858
-27.363
-24.128
-27.093
-23.588
-30.598
-30.059
-25.476
-20.623
-21.971
-20.084
-27.093
-24.936
-20.623
-21.432
-21.432
-20.353
-27.363
-29.52
-29.25
-28.98
-29.789
-21.971
-20.893
-21.162
-20.893
-20.893
-20.893
-20.893
-20.893
-21.162
-28.711
-20.893
-29.52
-28.711
-28.711
-29.25
-26.824
-21.432
-29.789
-28.441
-28.711
-28.441
-28.441
-28.441
-28.441
-28.711
-27.632
-32.215
-37.338
-35.99
-37.338
-31.137
-28.711
-21.971
-25.745
-23.319
-19.545
-19.545
-26.284
-28.441
-27.902
-27.902
-28.711
-20.084
-27.632
-20.623
-19.814
-19.545
-27.902
-19.814
-19.814
-20.084
-28.172
-27.093
-19.005
-20.084
-18.466
-10.918
-11.187
-13.344
-19.814
-22.241
-25.476
-21.432
-26.015
-17.657
-23.049
-28.172
-27.093
-27.363
-27.363
-27.363
-27.363
-27.363
-27.363
-27.093
-27.093
-27.093
-27.093
-27.093
-27.093
-27.363
-26.284
-33.833
-35.72
-27.632
-26.824
-26.824
-26.824
-26.554
-34.911
-26.554
-26.824
-26.554
-26.824
-26.015
-17.927
-18.736
-18.197
-20.353
-25.206
-19.275
-27.632
-26.284
-26.554
-26.554
-25.476
-30.059
-31.946
-25.476
-25.745
-30.059
-35.181
-33.294
-38.686
-44.078
-35.72
-40.034
-36.259
-38.955
-42.73
-41.651
-41.921
-41.921
-41.921
-41.921
-41.651
-42.19
-34.103
-33.563
-33.563
-33.563
-25.476
-33.563
-33.294
-33.563
-32.755
-24.936
-25.206
-26.284
-33.833
-33.563
-31.137
-26.015
-34.103
-33.294
-30.598
-24.128
-25.206
-24.936
-24.936
-24.936
-24.936
-24.936
-24.667
-25.476
-20.084
-16.04
-16.579
-17.388
-10.918
-7.952
-8.7608
-8.4912
-8.4912
-8.7608
-7.952
-15.501
-16.849
-16.579
-16.579
-16.579
-16.309
-24.397
-24.397
-32.755
-32.485
-31.946
-23.858
-24.397
-24.128
-24.397
-24.128
-24.128
-24.128
-24.128
-23.858
-24.936
-20.893
-17.927
-25.206
-23.858
-24.128
-23.858
-23.858
-23.858
-23.858
-23.858
-23.858
-23.858
-23.858
-23.858
-23.858
-23.858
-23.588
-23.588
-23.588
-23.588
-23.588
-23.588
-23.588
-23.588
-23.049
-31.676
-23.588
-31.407
-31.407
-31.407
-31.407
-31.407
-31.407
-31.407
-31.137
-31.137
-31.137
-31.137
-31.676
-28.98
-22.241
-23.319
-22.78
-23.858
-19.005
-17.657
-23.049
-27.363
-27.093
-26.015
-31.676
-30.868
-30.059
-35.72
-39.495
-38.147
-42.999
-58.366
-69.689
-70.498
-75.89
-92.065
-101.23
-115.52
-140.05
-156.77
-181.03
-197.48
-222.01
-230.1
-246.27
-245.73
-245.73
-244.12
-227.67
-218.24
-192.08
-166.74
-131.7
-88.291
-38.147
11.459
59.986
114.17
181.57
247.08
312.6
378.92
440.65
497.81
551.73
595.94
632.6
659.02
684.1
698.38
701.08
688.41
671.69
642.58
608.07
574.1
546.87
528.27
518.03
510.75
487.02
461.41
429.33
379.72
337.94
288.33
246.81
197.48
164.32
123.07
90.45
58.368
32.487
1.4838
-13.883
-28.711
-38.416
-53.513
-61.332
-66.454
-69.15
-74.542
-77.238
-82.899
-82.09
-81.012
-87.213
-85.325
-85.595
-89.639
-95.57
-92.065
-94.222
-97.996
-97.188
-97.188
-97.188
-96.109
-103.66
-104.47
-111.48
-113.36
-105.01
-104.47
-103.93
-112.02
-112.02
-112.02
-103.93
-112.02
-111.75
-110.67
-103.66
-112.02
-110.94
-111.21
-110.94
-110.67
-111.21
-108.51
-101.5
-102.58
-102.31
-102.31
-102.04
-102.04
-101.5
-102.85
-96.648
-97.188
-102.31
-100.69
-102.31
-94.761
-98.266
-100.42
-107.43
-103.12
-100.15
-100.69
-100.42
-99.614
-107.43
-108.24
-107.97
-107.97
-107.7
-107.7
-107.7
-107.43
-107.43
-107.16
-107.16
-106.35
-98.266
-99.075
-98.266
-100.15
-107.16
-106.08
-106.35
-106.08
-106.08
-106.08
-105.81
-105.81
-105.55
-105.55
-105.55
-105.28
-105.55
-103.93
-110.67
-108.78
-103.93
-105.01
-104.47
-104.47
-104.74
-103.12
-111.75
-104.74
-111.21
-104.47
-110.67
-111.75
-111.48
-111.48
-111.21
-111.21
-110.94
-110.94
-110.94
-110.67
-110.67
-110.67
-110.13
-111.48
-117.95
-107.16
-103.12
-110.4
-111.48
-118.49
-117.14
-117.41
-117.14
-117.14
-117.14
-116.87
-116.87
-116.6
-116.6
-116.33
-116.6
-114.98
-122.53
-118.22
-120.91
-124.42
-123.61
-122.8
-129.81
-131.43
-131.43
-130.35
-138.71
-131.16
-138.17
-138.44
-138.44
-130.35
-130.08
-129.81
-129.81
-129.54
-129.54
-129.27
-129.27
-129.27
-128.46
-130.89
-135.74
-127.65
-128.19
-130.62
-137.09
-135.74
-136.01
-135.74
-135.74
-135.47
-135.47
-135.2
-135.2
-134.93
-134.93
-134.39
-135.74
-127.92
-131.43
-134.93
-133.85
-133.85
-133.85
-133.58
-133.58
-133.31
-133.31
-132.77
-140.59
-141.13
-132.77
-124.42
-124.42
-124.42
-131.97
-123.34
-123.88
-123.61
-123.61
-123.34
-123.07
-123.61
-120.64
-116.06
-123.88
-122.53
-122.53
-123.07
-119.02
-113.36
-113.9
-114.71
-109.59
-105.81
-101.23
-96.648
-97.457
-97.188
-97.188
-96.648
-97.727
-90.717
-88.291
-88.291
-89.369
-80.742
-87.752
-81.012
-80.203
-72.385
-72.115
-64.028
-63.758
-63.758
-71.576
-63.219
-63.488
-63.488
-62.14
-55.67
-62.68
-54.322
-54.861
-57.018
-61.871
-53.783
-55.131
-54.592
-54.592
-55.401
-51.357
-45.965
-45.695
-51.087
-51.087
-45.156
-46.234
-46.234
-44.886
-52.165
-49.2
-45.156
-45.965
-45.695
-45.695
-45.695
-45.695
-45.695
-45.695
-45.695
-45.156
-52.974
-53.783
-45.426
-45.426
-45.156
-45.156
-45.426
-44.617
-37.338
-45.695
-44.617
-45.426
-43.538
-35.99
-37.068
-36.799
-36.799
-36.799
-36.529
-36.529
-36.529
-36.529
-36.529
-36.259
-37.607
-31.137
-33.024
-31.676
-32.215
-37.068
-35.99
-36.259
-36.259
-35.181
-42.19
-44.347
-44.617
-37.338
-35.72
-35.99
-35.72
-35.72
-35.72
-35.72
-35.72
-35.72
-27.632
-35.451
-27.632
-35.451
-27.363
-36.259
-35.181
-35.451
-35.181
-35.72
-33.294
-26.284
-27.632
-26.554
-29.789
-35.99
-34.911
-35.181
-34.911
-34.911
-34.911
-34.911
-34.911
-34.911
-34.911
-34.642
-34.642
-34.642
-34.642
-34.642
-34.642
-34.642
-34.372
-34.372
-34.372
-34.372
-34.372
-34.372
-34.372
-34.372
-34.103
-34.103
-34.372
-42.46
-41.382
-34.103
-42.73
-41.921
-41.921
-41.921
-42.19
-40.034
-33.024
-33.294
-35.99
-42.46
-41.382
-41.651
-41.651
-41.382
-41.382
-41.112
-42.19
-37.068
-31.676
-38.147
-41.921
-41.112
-41.112
-41.112
-41.112
-41.112
-40.842
-40.842
-40.842
-40.842
-40.842
-40.842
-40.573
-41.112
-33.024
-32.215
-40.573
-32.485
-40.842
-40.303
-40.303
-41.382
-47.852
-40.842
-47.582
-40.842
-47.582
-38.955
-40.303
-40.034
-39.225
-43.269
-45.965
-38.955
-39.225
-43.808
-45.156
-37.607
-44.886
-43.538
-39.495
-34.911
-30.598
-31.407
-31.407
-30.598
-37.338
-39.764
-39.225
-39.225
-39.225
-38.955
-39.764
-31.676
-30.868
-30.868
-30.868
-30.868
-30.868
-30.868
-38.686
-30.328
-31.407
-39.495
-37.338
-31.407
-37.877
-31.407
-37.877
-29.25
-30.868
-30.328
-30.328
-30.328
-30.328
-30.328
-30.059
-30.598
-28.98
-35.181
-33.563
-34.372
-34.372
-28.98
-30.328
-29.789
-30.059
-29.52
-30.868
-22.51
-28.711
-22.78
-28.172
-30.059
-29.789
-29.52
-30.059
-21.432
-29.52
-21.432
-29.52
-29.52
-29.52
-29.52
-29.52
-29.25
-29.25
-29.25
-29.25
-29.25
-29.25
-29.25
-29.25
-29.25
-28.98
-29.25
-28.711
-30.059
-24.667
-23.858
-29.789
-29.789
-23.588
-25.476
-24.936
-19.814
-20.893
-20.623
-20.623
-20.623
-20.623
-20.353
-21.432
-13.074
-19.275
-20.893
-20.623
-19.814
-28.441
-20.623
-28.172
-28.441
-28.441
-28.441
-28.441
-28.441
-28.441
-28.172
-28.172
-28.172
-28.172
-28.172
-27.902
-28.711
-25.206
-22.241
-25.745
-22.51
-25.476
-21.971
-28.98
-27.632
-27.632
-28.711
-23.319
-19.005
-19.814
-19.814
-19.545
-20.084
-18.466
-26.554
-21.971
-19.005
-19.814
-19.545
-19.545
-19.545
-19.545
-19.545
-19.545
-19.275
-19.545
-19.275
-27.363
-19.275
-27.902
-27.093
-27.363
-27.363
-26.824
-28.98
-34.103
-28.172
-34.372
-26.015
-27.363
-27.093
-27.093
-27.093
-26.015
-31.137
-32.215
-25.745
-27.093
-26.824
-26.824
-26.824
-26.824
-26.824
-26.554
-26.554
-26.554
-26.554
-26.554
-26.554
-26.554
-26.824
-25.745
-34.103
-27.093
-26.554
-18.466
-26.015
-26.284
-26.284
-26.284
-26.284
-26.284
-26.015
-26.284
-24.936
-19.005
-25.206
-18.466
-27.632
-23.319
-19.275
-27.093
-25.745
-26.015
-25.745
-25.745
-25.745
-25.745
-25.745
-25.745
-25.745
-25.745
-25.745
-25.745
-25.476
-25.476
-25.476
-25.476
-25.476
-25.476
-25.476
-25.476
-25.476
-25.206
-26.015
-17.388
-24.936
-17.657
-17.118
-25.206
-25.206
-25.206
-25.206
-25.206
-25.206
-25.206
-24.936
-24.936
-24.936
-25.206
-24.397
-26.824
-33.833
-32.755
-33.024
-32.755
-32.755
-33.024
-31.676
-37.338
-37.607
-31.676
-33.024
-31.676
-37.338
-41.112
-40.303
-40.573
-40.573
-40.034
-41.112
-33.833
-31.676
-32.755
-25.476
-23.049
-31.946
-24.397
-31.407
-31.946
-31.946
-31.946
-40.034
-31.946
-40.303
-39.764
-38.955
-31.946
-40.573
-39.495
-39.764
-39.495
-39.495
-40.034
-37.068
-30.598
-31.407
-31.946
-28.172
-22.241
-24.128
-19.275
-14.153
-16.04
-10.648
-6.3345
-7.4128
-5.7953
-13.613
-9.0304
-12.535
-14.692
-21.971
-16.309
-21.162
-23.049
-23.588
-14.961
-22.51
-15.501
-14.692
-14.692
-22.78
-22.78
-22.78
-22.78
-22.78
-22.78
-22.78
-22.78
-22.78
-22.51
-22.51
-22.51
-22.51
-22.51
-22.51
-22.51
-22.51
-22.241
-23.049
-19.275
-12.805
-18.466
-23.049
-21.971
-22.51
-21.432
-27.363
-31.137
-29.789
-31.407
-23.049
-28.711
-23.588
-28.172
-30.598
-29.789
-30.598
-22.78
-21.701
-21.971
-21.971
-21.971
-21.701
-21.971
-21.432
-13.883
-21.432
-13.883
-21.432
-13.883
-22.51
-21.432
-21.701
-21.701
-21.701
-21.432
-21.432
-21.432
-21.432
-21.432
-21.432
-21.432
-21.432
-21.701
-20.623
-25.745
-30.328
-28.441
-33.833
-42.46
-50.548
-58.905
-66.993
-75.351
-82.63
-98.266
-107.43
-122.26
-138.44
-162.16
-186.69
-211.77
-228.21
-244.66
-252.74
-260.56
-251.4
-235.22
-225.78
-200.17
-174.56
-140.86
-108.51
-72.655
-21.432
26.556
81.014
145.45
204.22
271.08
336.59
401.83
468.96
526.65
575.72
616.43
648.24
675.74
701.35
711.32
704.32
689.22
673.31
644.2
611.04
568.98
546.33
529.89
519.1
512.09
488.37
463.57
423.67
373.79
331.74
290.49
240.88
207.72
165.67
125.5
100.69
66.995
34.644
11.998
-5.5257
-30.059
-43.808
-51.357
-60.253
-66.184
-65.106
-65.376
-64.567
-68.341
-74.003
-72.924
-72.115
-77.238
-80.473
-86.134
-84.517
-79.934
-79.934
-85.865
-88.83
-88.291
-88.291
-88.021
-88.021
-88.021
-87.213
-94.761
-95.84
-95.57
-95.57
-95.3
-95.3
-95.3
-95.031
-95.031
-95.031
-94.761
-94.761
-94.761
-94.492
-94.492
-94.222
-94.222
-94.222
-93.953
-94.492
-91.526
-84.517
-86.943
-81.012
-83.169
-95.3
-92.874
-93.413
-93.144
-93.144
-93.144
-92.605
-93.953
-86.134
-90.717
-86.673
-89.639
-92.874
-92.065
-92.065
-92.065
-91.257
-99.075
-99.884
-100.15
-91.796
-91.526
-91.257
-99.344
-99.075
-98.805
-90.717
-90.987
-90.717
-90.448
-92.065
-97.457
-91.257
-97.188
-90.717
-99.614
-95.57
-88.561
-92.605
-99.344
-93.683
-92.065
-98.536
-97.188
-97.188
-97.188
-96.918
-96.918
-96.648
-97.996
-90.178
-94.761
-90.178
-94.761
-89.369
-95.3
-88.291
-101.77
-97.457
-95.57
-95.84
-95.57
-95.3
-103.12
-103.39
-103.12
-103.12
-102.58
-94.492
-94.761
-95.84
-102.04
-95.031
-101.77
-94.761
-103.66
-100.15
-92.605
-97.188
-99.344
-95.3
-102.85
-101.23
-101.5
-101.23
-101.23
-100.96
-101.23
-100.15
-105.55
-109.32
-108.51
-108.51
-108.51
-108.24
-108.24
-108.24
-107.16
-114.71
-116.06
-116.06
-109.05
-99.344
-107.16
-99.614
-99.075
-98.805
-106.89
-98.805
-107.16
-106.35
-106.35
-107.16
-114.71
-114.17
-113.63
-116.06
-120.37
-114.71
-122.8
-121.18
-121.45
-121.18
-120.91
-121.99
-116.33
-116.33
-117.68
-111.48
-112.55
-112.02
-112.02
-112.02
-111.75
-111.75
-111.75
-111.48
-111.21
-111.48
-110.4
-118.49
-112.28
-110.67
-110.67
-110.67
-110.4
-110.4
-110.4
-110.13
-110.13
-109.86
-109.86
-109.59
-109.86
-108.51
-100.69
-101.5
-100.96
-100.96
-100.69
-101.23
-98.536
-91.796
-92.605
-92.335
-92.335
-92.335
-91.796
-92.874
-88.021
-82.63
-84.786
-78.855
-74.811
-75.351
-76.159
-69.689
-66.454
-67.263
-66.724
-67.802
-60.253
-58.366
-58.636
-59.175
-51.087
-50.278
-50.548
-50.278
-50.278
-50.278
-50.009
-41.921
-42.19
-41.921
-42.19
-41.112
-33.024
-34.372
-31.676
-26.554
-34.642
-33.833
-31.407
-24.667
-25.745
-25.476
-25.476
-25.476
-25.745
-24.667
-29.25
-34.911
-28.441
-24.667
-25.476
-25.206
-25.206
-25.206
-25.206
-24.936
-25.745
-18.466
-16.579
-17.118
-16.849
-16.849
-16.849
-17.118
-16.579
-24.936
-16.849
-16.849
-16.849
-16.849
-16.849
-16.579
-17.118
-15.501
-9.3
-17.657
-16.579
-16.579
-16.849
-16.04
-19.545
-22.78
-15.501
-16.849
-16.309
-17.388
-11.996
-11.726
-17.388
-16.579
-15.501
-22.241
-20.084
-15.501
-16.579
-16.309
-16.309
-16.309
-16.04
-17.118
-9.5696
-7.952
-8.2216
-8.4912
-7.6824
-16.309
-8.2216
-16.04
-16.309
-16.309
-16.309
-15.77
-7.6824
-8.2216
-8.2216
-7.6824
-9.5696
-15.231
-7.1432
-8.2216
-7.952
-7.4128
-10.648
-16.849
-16.309
-13.074
-6.3345
-11.726
-16.849
-15.501
-17.118
-10.648
-11.996
-16.579
-16.04
-14.961
-21.971
-19.545
-8.2216
-13.613
-16.309
-15.77
-15.77
-15.77
-15.77
-15.77
-15.77
-15.77
-15.77
-15.501
-15.501
-15.501
-15.501
-15.501
-15.501
-15.231
-16.849
-22.78
-16.309
-22.51
-16.579
-21.971
-17.118
-21.432
-17.657
-20.893
-17.927
-21.432
-14.153
-15.501
-15.231
-15.231
-15.231
-15.231
-15.231
-15.231
-15.231
-14.961
-15.501
-13.883
-22.241
-16.04
-21.971
-16.04
-22.241
-16.309
-14.692
-14.961
-14.961
-15.231
-7.1432
-6.8736
-6.8736
-14.961
-14.692
-14.961
-14.961
-13.883
-6.0649
-6.8736
-6.6041
-6.8736
-6.3345
-8.7608
-15.501
-14.422
-14.961
-14.422
-15.77
-10.378
-10.378
-11.187
-9.5696
-15.77
-14.422
-14.422
-15.501
-9.3
-6.3345
-5.5257
-13.344
-7.952
-13.074
-7.6824
-13.613
-7.4128
-13.613
-7.6824
-6.0649
-6.6041
-6.3345
-6.3345
-6.6041
1.7534
1.4838
1.7534
1.4838
1.7534
0.67498
-5.7953
1.2142
-7.4128
-6.3345
-6.0649
-8.7608
-13.074
-5.5257
-5.7953
-9.8392
-11.457
-9.0304
-11.996
-5.2561
-6.3345
-7.4128
-0.94258
-3.0993
-1.2122
-3.3689
-1.2122
-2.8297
-7.1432
-6.0649
-6.3345
-6.3345
-6.3345
-6.3345
-6.0649
-7.1432
1.7534
-6.0649
1.4838
-5.7953
-6.3345
-6.0649
-6.0649
2.023
1.7534
2.023
1.2142
-6.6041
-6.0649
-6.3345
-6.0649
-6.6041
-3.9081
0.67498
-7.1432
-5.7953
-6.0649
-6.8736
-2.5601
-0.40339
-7.1432
-5.7953
-6.0649
-7.1432
-0.94258
-2.021
-6.8736
-6.0649
-5.7953
-6.8736
-0.40339
2.5621
1.7534
2.023
2.023
2.023
1.7534
2.5621
-5.7953
0.94458
2.5621
-5.7953
-6.0649
-6.0649
-6.0649
-6.0649
-6.0649
-6.0649
-6.0649
-6.0649
-6.0649
-6.0649
-6.0649
-5.7953
-6.6041
-3.6385
0.67498
-7.6824
-3.3689
3.3709
-1.2122
-6.8736
-5.5257
-7.1432
-0.94258
-2.2905
-1.7514
-1.7514
-6.8736
-5.7953
-6.0649
-6.0649
-6.0649
-6.0649
-6.0649
-6.0649
-5.7953
-5.7953
-5.7953
-5.7953
-5.7953
-5.7953
-5.7953
-5.7953
-5.7953
-5.7953
-5.7953
-5.7953
-5.7953
-5.7953
-5.7953
-5.5257
-6.8736
-14.422
-14.153
-11.726
-6.8736
-14.961
-13.613
-13.613
-14.692
-10.109
-8.7608
-11.457
-4.7169
-5.7953
-6.6041
-0.67298
-1.4818
-6.6041
-5.7953
-4.7169
-11.187
-13.613
-19.005
-23.319
-14.422
-19.814
-21.971
-21.701
-20.893
-29.25
-22.51
-21.432
-21.432
-21.432
-21.432
-21.432
-21.701
-29.25
-20.893
-21.432
-21.432
-20.353
-12.535
-13.344
-13.074
-13.344
-13.074
-13.613
-10.918
-4.1777
-5.2561
-4.7169
-5.7953
-1.7514
4.4493
-0.94258
-6.8736
0.40539
-0.94258
-5.7953
-4.9865
-4.7169
-6.0649
1.4838
-2.5601
-5.5257
-5.5257
1.2142
4.1797
-4.7169
2.2925
-3.9081
-5.2561
-4.9865
-4.9865
-4.9865
-4.9865
-4.9865
-4.9865
-4.9865
-4.9865
-4.9865
-4.9865
-4.9865
-4.9865
-4.9865
-4.9865
-4.9865
-4.9865
-4.9865
-4.9865
-4.1777
-7.6824
-13.883
-12.805
-12.805
-13.883
-7.952
-9.3
-8.2216
-9.5696
-7.952
-9.0304
-13.613
-12.535
-12.805
-12.805
-12.805
-12.805
-12.535
-13.613
-4.9865
-12.266
-4.9865
-12.266
-5.2561
-4.4473
-4.7169
-4.7169
-4.7169
-4.9865
-13.074
-11.996
-4.1777
-4.7169
-4.4473
-4.7169
-4.1777
-6.3345
-13.344
-12.266
-12.535
-12.535
-12.535
-12.805
-11.726
-16.579
-17.657
-12.266
-8.7608
-3.9081
-3.9081
-9.0304
-13.344
-11.457
-17.927
-21.162
-19.545
-26.824
-28.172
-34.103
-42.73
-51.626
-52.165
-59.175
-67.263
-82.899
-99.075
-123.61
-148.14
-172.67
-189.12
-213.38
-229.56
-245.19
-253.28
-258.4
-241.42
-231.18
-206.64
-187.77
-152.72
-120.37
-85.595
-40.842
9.0324
60.255
123.07
184.81
246.28
306.93
374.06
435.53
487.56
540.4
591.36
623.17
653.36
669.27
676.55
672.5
657.68
627.48
592.97
560.08
519.37
482.71
479.74
472.19
463.3
446.85
422.05
388.62
355.19
321.76
288.6
254.9
212.31
173.75
147.06
106.63
83.98
58.099
35.453
19.816
3.1013
-13.344
-30.328
-43.538
-51.896
-55.94
-59.444
-64.567
-63.488
-64.028
-62.68
-68.341
-72.115
-71.307
-71.307
-71.576
-70.228
-78.046
-73.463
-69.689
-77.777
-79.125
-78.855
-78.855
-78.586
-78.586
-78.586
-78.316
-78.316
-86.404
-77.777
-78.046
-78.586
-86.404
-86.134
-84.517
-78.316
-86.673
-85.325
-85.595
-85.595
-84.786
-87.752
-93.953
-92.874
-92.874
-93.953
-88.291
-88.291
-89.639
-83.438
-84.517
-84.247
-84.517
-83.169
-89.369
-92.605
-91.796
-91.526
-92.605
-84.247
-89.909
-91.257
-97.996
-100.15
-91.526
-91.257
-83.438
-82.63
-90.717
-90.717
-90.717
-90.448
-90.448
-90.178
-90.178
-90.178
-89.909
-90.178
-89.369
-92.065
-95.84
-91.257
-95.57
-91.257
-95.57
-88.291
-88.561
-92.335
-97.727
-96.648
-97.188
-95.57
-102.04
-100.42
-95.57
-96.379
-96.109
-96.109
-95.84
-95.84
-95.84
-95.57
-95.57
-95.57
-95.3
-95.3
-95.3
-94.492
-102.85
-95.031
-94.761
-94.761
-94.492
-94.492
-94.492
-94.222
-94.222
-93.953
-95.3
-102.58
-101.5
-102.31
-99.075
-95.031
-102.04
-103.66
-110.13
-109.05
-108.78
-109.86
-104.2
-104.74
-105.28
-99.344
-100.69
-100.15
-100.15
-100.15
-99.884
-100.15
-98.805
-105.81
-107.97
-107.7
-106.35
-114.98
-107.7
-114.17
-115.25
-114.71
-114.71
-114.71
-114.44
-114.44
-114.17
-114.17
-113.9
-114.71
-122.26
-121.72
-120.37
-112.82
-113.09
-114.98
-121.72
-121.45
-117.95
-114.44
-121.72
-120.1
-120.37
-120.1
-120.1
-120.1
-119.83
-120.1
-118.49
-125.23
-122.8
-118.49
-119.29
-119.02
-118.76
-118.76
-118.76
-118.49
-118.49
-118.22
-118.22
-117.95
-117.95
-117.41
-125.5
-125.5
-125.5
-125.23
-116.87
-117.14
-116.87
-117.14
-115.79
-107.97
-108.51
-108.24
-108.24
-107.97
-107.7
-108.51
-105.28
-98.805
-99.614
-100.15
-95.84
-90.448
-90.178
-95.84
-95.3
-89.909
-90.717
-91.526
-84.247
-88.021
-85.325
-81.551
-82.36
-81.821
-82.63
-75.081
-73.463
-73.733
-73.463
-74.003
-65.645
-65.376
-57.288
-57.018
-57.018
-57.018
-57.018
-56.479
-48.391
-48.93
-48.661
-48.661
-48.93
-46.504
-41.382
-49.469
-48.661
-45.965
-39.225
-40.303
-40.034
-40.034
-40.034
-40.303
-38.955
-45.156
-43.269
-43.808
-47.582
-53.513
-51.087
-47.043
-47.852
-47.582
-47.582
-47.582
-47.313
-47.582
-47.043
-48.122
-39.225
-47.043
-39.764
-38.955
-38.955
-47.043
-47.043
-46.774
-38.416
-38.955
-38.686
-38.686
-38.955
-37.068
-31.407
-39.495
-38.416
-38.686
-38.416
-38.416
-38.416
-38.416
-38.416
-38.147
-38.147
-38.147
-38.147
-37.877
-38.955
-33.294
-29.25
-30.059
-29.789
-30.059
-28.98
-35.99
-38.147
-37.607
-37.607
-38.416
-30.598
-29.25
-29.52
-29.52
-29.52
-29.52
-29.52
-29.52
-29.25
-29.25
-29.25
-29.25
-30.059
-37.877
-37.068
-37.607
-35.72
-27.902
-31.676
-35.72
-27.363
-31.676
-37.877
-36.799
-37.068
-36.799
-36.799
-36.799
-36.799
-36.529
-37.877
-30.598
-33.833
-32.215
-26.824
-34.103
-37.877
-29.25
-34.372
-36.799
-36.259
-36.259
-35.99
-36.799
-28.172
-35.451
-36.259
-35.99
-35.99
-35.99
-35.99
-35.99
-35.99
-35.72
-35.72
-35.72
-35.72
-35.72
-35.72
-35.72
-35.72
-35.451
-35.451
-35.451
-35.451
-35.451
-35.451
-35.181
-35.451
-34.103
-40.573
-38.686
-38.955
-44.078
-42.999
-42.999
-42.999
-42.73
-44.078
-35.72
-41.651
-35.99
-41.112
-42.999
-42.73
-42.73
-42.73
-42.46
-42.46
-42.46
-42.46
-42.46
-41.921
-34.372
-42.19
-33.563
-34.372
-34.103
-34.103
-34.103
-34.103
-33.833
-33.833
-33.833
-33.833
-33.833
-34.103
-32.755
-37.877
-38.955
-32.485
-33.833
-33.563
-33.563
-33.563
-33.563
-33.563
-33.294
-33.294
-33.294
-33.294
-33.294
-33.294
-33.294
-33.294
-33.024
-33.024
-33.024
-33.024
-33.024
-33.024
-33.024
-33.024
-32.755
-32.755
-32.755
-32.755
-32.755
-32.755
-32.485
-33.024
-30.598
-26.015
-31.137
-25.476
-33.563
-32.215
-32.485
-32.485
-32.215
-32.215
-32.215
-32.215
-32.215
-32.215
-32.215
-32.215
-31.676
-33.294
-25.476
-30.328
-25.745
-30.328
-26.015
-23.588
-23.319
-30.598
-31.946
-32.215
-24.397
-23.588
-23.588
-23.588
-23.588
-23.588
-23.858
-31.407
-23.588
-32.215
-31.137
-31.407
-31.407
-31.407
-31.407
-31.407
-31.407
-31.137
-31.137
-31.137
-31.137
-31.137
-31.137
-31.137
-31.137
-30.868
-30.868
-30.868
-30.868
-30.868
-30.868
-30.868
-30.868
-30.868
-30.598
-30.868
-29.789
-37.338
-38.955
-38.416
-38.416
-38.955
-30.868
-30.328
-30.328
-30.328
-22.241
-22.241
-22.51
-30.598
-30.059
-30.059
-30.059
-30.059
-30.059
-30.059
-30.059
-29.52
-31.946
-38.686
-37.607
-37.877
-37.877
-37.607
-38.686
-33.024
-33.563
-34.642
-28.441
-29.789
-29.52
-29.52
-29.52
-29.52
-29.52
-29.25
-29.25
-29.25
-29.25
-29.52
-28.441
-36.259
-37.338
-37.068
-37.068
-37.068
-37.068
-37.068
-37.068
-44.886
-36.799
-45.426
-44.617
-44.617
-45.695
-52.974
-54.322
-59.444
-53.244
-61.601
-60.792
-57.557
-54.592
-58.636
-51.087
-52.165
-52.705
-48.391
-43.269
-44.078
-43.808
-43.808
-43.808
-43.538
-44.078
-42.46
-50.278
-46.234
-42.999
-43.538
-43.538
-43.269
-44.078
-36.259
-34.911
-35.181
-34.911
-35.451
-27.093
-27.093
-26.824
-26.824
-27.093
-26.284
-19.005
-27.632
-26.554
-26.824
-26.824
-26.824
-26.824
-26.554
-26.554
-26.554
-26.554
-26.824
-26.015
-29.52
-35.99
-30.598
-25.745
-26.554
-26.284
-26.554
-25.476
-31.407
-35.181
-33.294
-40.034
-42.46
-42.999
-34.911
-41.112
-35.72
-33.563
-34.103
-33.833
-33.833
-33.833
-33.833
-33.833
-33.833
-25.745
-33.833
-33.563
-33.563
-34.372
-42.19
-41.651
-40.303
-32.755
-33.563
-33.294
-33.294
-33.294
-33.294
-33.294
-33.024
-33.294
-32.215
-37.338
-38.147
-31.946
-33.294
-32.755
-33.024
-32.755
-32.755
-32.755
-32.755
-32.755
-32.755
-32.755
-32.485
-32.485
-32.485
-32.485
-32.485
-32.485
-32.485
-32.485
-32.215
-40.303
-40.303
-40.034
-32.215
-40.034
-32.215
-40.842
-39.764
-40.303
-39.764
-41.651
-48.391
-49.469
-58.097
-68.88
-83.438
-90.717
-98.805
-109.05
-130.62
-151.38
-170.52
-196.94
-216.62
-233.06
-244.39
-252.47
-255.98
-250.59
-234.95
-224.44
-210.96
-188.31
-156.23
-123.61
-83.169
-42.999
13.615
63.221
127.92
185.89
251.4
316.91
382.69
448.2
513.44
570.06
617.24
649.05
680.32
704.58
724.8
721.3
707.82
683.56
664.15
625.32
585.96
552.53
523.15
516.14
509.13
494.03
484.33
458.18
420.97
368.4
315.29
258.68
216.89
179.15
143.56
104.47
68.882
35.722
8.4932
-9.0304
-25.206
-41.651
-58.636
-67.532
-75.351
-83.708
-83.978
-83.978
-83.708
-83.708
-83.978
-91.796
-92.065
-99.884
-99.344
-98.805
-100.69
-107.16
-109.32
-113.09
-108.51
-112.55
-108.78
-112.82
-105.01
-106.35
-106.08
-105.81
-106.08
-105.01
-110.13
-114.17
-113.36
-113.36
-113.36
-112.02
-119.56
-116.06
-105.81
-104.2
-104.47
-104.47
-104.2
-104.2
-103.66
-111.48
-112.02
-111.75
-111.75
-111.48
-111.75
-119.29
-111.21
-119.83
-118.76
-119.02
-118.76
-118.49
-118.76
-117.95
-120.64
-124.96
-116.87
-118.22
-117.68
-117.41
-118.49
-113.09
-112.28
-116.87
-122.53
-117.14
-107.43
-107.97
-114.71
-110.67
-114.17
-110.13
-114.17
-110.67
-107.16
-108.24
-106.62
-114.98
-108.51
-107.16
-106.89
-114.71
-114.71
-122.8
-122.8
-122.8
-122.26
-114.17
-114.44
-114.17
-114.17
-113.63
-115.52
-120.64
-114.71
-120.64
-112.28
-113.63
-112.55
-115.52
-121.72
-120.64
-120.64
-120.64
-119.83
-123.88
-130.08
-122.26
-124.96
-122.8
-123.88
-128.19
-127.92
-121.72
-117.95
-124.42
-134.39
-128.46
-126.3
-126.57
-126.3
-126.3
-126.03
-126.03
-125.76
-125.76
-125.5
-125.23
-117.41
-125.76
-124.96
-125.76
-133.58
-132.23
-134.39
-139.78
-131.43
-132.5
-131.97
-131.97
-131.7
-131.7
-131.43
-131.43
-131.43
-130.35
-134.93
-139.51
-138.97
-137.63
-144.37
-141.13
-143.56
-141.4
-137.09
-138.17
-136.82
-143.83
-145.71
-145.18
-145.18
-144.91
-144.91
-144.64
-144.37
-144.37
-144.1
-144.1
-143.83
-143.83
-143.56
-143.56
-143.29
-143.29
-142.75
-144.1
-151.38
-150.3
-151.11
-147.87
-143.29
-151.11
-149.49
-149.76
-149.49
-149.49
-149.22
-148.95
-150.03
-143.56
-145.18
-144.64
-139.51
-139.24
-145.98
-143.02
-138.97
-139.78
-139.51
-138.97
-139.78
-132.23
-130.62
-130.89
-130.35
-130.89
-122.8
-121.99
-121.99
-121.72
-121.72
-113.36
-113.63
-113.36
-113.09
-113.09
-112.82
-113.09
-111.21
-104.2
-102.85
-95.57
-96.379
-96.648
-93.413
-86.943
-88.021
-87.752
-87.482
-88.021
-84.517
-73.194
-76.159
-74.272
-75.89
-74.811
-69.689
-71.846
-64.836
-62.14
-62.68
-62.14
-63.219
-55.67
-54.053
-54.053
-54.861
-45.965
-53.783
-46.234
-45.965
-45.965
-53.783
-45.426
-45.695
-45.695
-45.695
-45.695
-45.426
-45.426
-45.426
-45.426
-45.426
-45.156
-45.156
-45.156
-45.156
-45.156
-44.886
-45.695
-41.651
-35.181
-41.112
-45.426
-45.426
-39.764
-37.068
-30.868
-33.294
-37.338
-36.259
-36.529
-36.529
-36.529
-36.259
-36.259
-36.259
-36.259
-36.259
-36.259
-36.259
-35.99
-36.259
-27.902
-36.259
-35.99
-35.99
-35.99
-35.72
-35.99
-34.642
-27.093
-27.363
-29.789
-33.833
-29.25
-33.833
-28.98
-36.799
-35.181
-35.451
-36.259
-31.676
-26.284
-28.441
-22.78
-18.466
-19.545
-18.197
-24.397
-27.632
-27.093
-26.284
-33.294
-35.181
-35.72
-28.441
-26.554
-27.093
-26.284
-34.911
-26.824
-34.642
-26.824
-34.642
-34.642
-34.642
-34.642
-34.103
-26.015
-26.554
-26.554
-26.554
-26.554
-26.284
-26.284
-26.284
-26.554
-25.745
-28.98
-35.181
-34.103
-33.563
-37.607
-43.808
-37.877
-33.294
-34.372
-33.833
-34.911
-28.711
-25.206
-26.015
-26.015
-24.936
-31.946
-34.103
-33.563
-33.833
-33.563
-33.563
-33.563
-33.563
-33.563
-33.563
-33.563
-33.294
-33.294
-33.294
-33.563
-32.485
-25.745
-32.755
-25.476
-34.103
-32.755
-33.294
-33.024
-33.563
-30.868
-23.319
-28.711
-30.059
-27.632
-30.598
-23.858
-24.128
-28.711
-33.563
-32.755
-31.676
-38.416
-35.99
-32.755
-27.093
-23.858
-24.397
-25.476
-16.849
-23.319
-17.927
-15.231
-23.588
-24.397
-24.397
-23.858
-31.946
-32.215
-24.128
-24.128
-24.128
-23.319
-16.309
-23.858
-14.961
-17.118
-24.936
-22.241
-15.231
-16.04
-15.501
-16.579
-12.535
-9.8392
-16.579
-16.309
-11.726
-10.378
-16.849
-15.501
-15.77
-15.77
-15.231
-16.849
-9.3
-13.613
-9.8392
-12.805
-16.309
-14.692
-21.971
-24.667
-16.579
-15.231
-15.501
-15.501
-15.501
-15.501
-15.501
-15.501
-15.501
-15.231
-15.501
-15.231
-16.04
-23.049
-14.422
-15.501
-14.961
-15.77
-13.344
-6.3345
-7.4128
-7.1432
-6.3345
-10.918
-12.266
-9.3
-16.04
-15.501
-11.187
-6.3345
-6.3345
-11.726
-15.501
-15.77
-9.5696
-6.6041
-6.3345
-13.074
-15.231
-16.04
-7.4128
-14.153
-7.6824
-13.613
-15.231
-14.961
-14.961
-14.961
-14.961
-14.961
-14.692
-14.692
-14.692
-14.961
-14.153
-6.0649
-6.8736
-6.6041
-6.8736
-6.3345
-8.4912
-15.501
-14.961
-12.266
-5.2561
-9.5696
-16.309
-10.109
-10.109
-11.726
-5.5257
-6.8736
-6.3345
-6.6041
-6.3345
-7.6824
-0.1338
-3.6385
-7.1432
-6.6041
-5.7953
-12.805
-15.501
-7.6824
-6.0649
-6.6041
-6.0649
-13.883
-14.692
-14.422
-14.422
-14.422
-14.422
-14.422
-14.422
-14.422
-14.422
-14.153
-14.692
-13.074
-5.5257
-6.3345
-6.6041
-4.1777
2.8317
1.4838
2.5621
-1.4818
-6.3345
-9.5696
-15.231
-13.883
-14.422
-14.153
-14.153
-14.153
-14.153
-13.883
-15.231
-7.4128
-11.726
-13.613
-21.162
-16.04
-13.613
-14.153
-13.883
-14.422
-6.6041
-5.7953
-6.0649
-5.7953
-5.7953
-5.7953
-5.7953
-5.7953
-6.3345
-14.422
-13.883
-13.883
-13.883
-13.883
-13.883
-13.883
-13.883
-13.883
-13.883
-13.613
-13.883
-13.074
-17.388
-21.701
-26.284
-25.745
-24.936
-30.868
-29.52
-29.789
-29.52
-29.52
-29.52
-29.52
-29.52
-29.25
-30.328
-22.78
-21.162
-21.162
-21.971
-13.613
-20.623
-21.432
-21.162
-21.162
-21.162
-13.074
-21.162
-12.535
-13.344
-12.266
-4.1777
-6.6041
-12.535
-4.1777
-5.2561
-4.9865
-4.9865
-4.9865
-4.9865
-4.7169
-5.7953
-1.2122
0.67498
-6.0649
-4.7169
-4.7169
-5.7953
-0.40339
3.6405
4.1797
-3.0993
0.67498
-1.7514
-5.5257
-4.7169
-4.9865
-4.9865
-4.9865
-4.9865
-4.7169
-4.9865
-4.4473
-12.535
-13.074
-12.805
-12.805
-12.805
-12.805
-12.805
-12.805
-12.805
-12.805
-12.805
-12.805
-12.805
-12.805
-12.805
-12.805
-12.805
-12.805
-12.805
-12.535
-12.535
-12.535
-12.535
-12.535
-12.805
-12.266
-13.613
-7.1432
-8.7608
-13.074
-13.074
-7.1432
-3.9081
-4.4473
-4.7169
-3.3689
-11.726
-6.0649
-4.1777
-4.4473
-4.4473
-4.4473
-4.4473
-4.4473
-4.4473
-4.4473
-12.535
-12.266
-12.535
-12.266
-12.535
-12.266
-13.344
-21.432
-18.466
-13.074
-21.162
-20.084
-19.814
-23.319
-26.554
-19.005
-20.623
-20.084
-20.353
-19.545
-23.319
-32.755
-39.764
-53.513
-65.645
-73.194
-81.012
-93.413
-117.14
-135.47
-157.31
-183.19
-200.71
-217.16
-227.13
-227.67
-227.67
-219.85
-211.5
-195.59
-170.79
-137.9
-104.74
-63.219
-21.701
28.174
78.048
136.01
194.51
260.56
327.69
401.29
463.3
522.88
584.62
632.6
676.55
707.28
738.01
754.73
758.77
749.34
732.35
706.74
672.5
633.14
599.71
580.3
568.98
560.62
551.73
539.32
502.93
460.87
412.61
362.47
312.06
270.27
220.93
179.15
129.54
95.842
62.682
37.879
13.346
-3.3689
-27.632
-34.911
-43.808
-50.548
-51.087
-60.523
-66.454
-68.071
-74.542
-76.429
-80.742
-72.924
-74.272
-73.733
-73.733
-73.733
-73.463
-73.733
-72.655
-77.777
-82.09
-81.012
-81.012
-81.282
-79.934
-87.752
-82.36
-87.482
-81.821
-87.482
-81.551
-86.943
-88.83
-88.291
-88.291
-88.021
-88.291
-79.934
-87.752
-87.752
-95.84
-95.57
-95.031
-86.943
-87.213
-88.561
-94.222
-87.482
-95.84
-95.3
-92.335
-88.561
-93.144
-85.325
-85.865
-89.369
-94.761
-94.761
-90.178
-86.134
-81.012
-81.282
-86.673
-85.325
-85.595
-85.325
-85.595
-84.247
-90.987
-93.413
-92.874
-92.874
-92.605
-93.413
-85.325
-84.247
-84.517
-84.247
-84.247
-83.978
-83.978
-83.978
-92.065
-91.796
-91.526
-92.605
-99.344
-90.717
-91.526
-91.257
-91.257
-90.987
-90.717
-91.526
-87.752
-84.517
-91.796
-90.178
-90.717
-89.639
-93.953
-99.075
-97.727
-97.996
-97.727
-97.727
-97.727
-97.457
-97.457
-97.457
-97.188
-97.188
-97.188
-96.918
-96.918
-96.109
-103.93
-104.74
-104.2
-104.74
-96.379
-104.2
-103.93
-103.93
-103.93
-103.39
-95.031
-96.379
-103.93
-103.12
-103.12
-103.66
-100.69
-96.379
-101.77
-93.683
-94.222
-97.996
-99.614
-96.379
-103.39
-101.77
-102.04
-102.04
-100.96
-106.35
-110.4
-109.32
-109.59
-109.32
-109.05
-109.32
-108.24
-115.25
-116.87
-117.41
-109.05
-115.25
-116.6
-116.06
-116.06
-116.06
-115.79
-115.79
-115.52
-115.52
-115.25
-115.79
-123.88
-121.99
-114.44
-114.71
-116.06
-123.34
-121.72
-124.42
-131.16
-129.81
-130.08
-129.81
-129.81
-129.54
-129.27
-130.08
-125.23
-120.1
-121.18
-120.64
-120.64
-120.37
-120.37
-120.37
-120.1
-120.1
-119.83
-119.83
-119.56
-119.56
-119.29
-119.83
-112.02
-110.4
-118.49
-119.02
-110.67
-110.4
-110.4
-110.4
-110.13
-110.13
-110.13
-109.05
-100.96
-101.77
-101.5
-101.5
-101.23
-101.5
-99.344
-89.639
-84.247
-84.786
-84.517
-84.517
-84.517
-84.247
-85.056
-79.664
-76.159
-71.307
-66.993
-68.071
-67.532
-67.802
-67.263
-68.341
-61.062
-58.905
-59.175
-59.984
-51.896
-51.626
-42.999
-50.817
-42.999
-50.817
-42.73
-50.817
-42.73
-50.817
-42.19
-42.73
-42.19
-43.269
-51.087
-50.009
-50.548
-48.93
-39.495
-33.294
-34.642
-31.676
-24.397
-29.789
-31.676
-24.128
-29.789
-34.372
-34.372
-29.52
-24.936
-25.745
-25.476
-25.745
-25.476
-25.476
-25.476
-25.476
-25.206
-26.284
-18.736
-17.118
-17.388
-17.388
-17.388
-17.388
-16.849
-25.206
-17.388
-25.476
-24.936
-16.849
-17.118
-17.118
-17.118
-17.118
-17.118
-16.849
-17.657
-14.692
-10.648
-15.231
-10.109
-18.197
-16.579
-17.118
-16.849
-16.849
-16.849
-16.579
-17.927
-11.457
-12.805
-17.388
-17.657
-10.378
-14.422
-11.726
-7.952
-8.7608
-8.7608
-8.7608
-8.4912
-8.7608
-7.952
-16.309
-9.3
-8.4912
-8.4912
-8.4912
-8.4912
-8.4912
-0.67298
-9.0304
-8.4912
-8.4912
-8.4912
-8.4912
-8.4912
-8.4912
-8.4912
-7.952
-10.648
-17.388
-16.309
-16.579
-16.579
-16.579
-16.309
-16.309
-16.579
-16.04
-17.388
-10.648
-13.344
-11.187
-13.344
-11.726
-7.6824
-7.6824
-14.153
-16.579
-16.04
-16.309
-16.309
-16.04
-16.849
-8.7608
-7.952
-7.952
-16.04
-16.04
-16.04
-16.04
-16.04
-16.04
-16.04
-16.04
-16.04
-16.309
-14.692
-7.1432
-8.7608
-5.2561
-1.7514
-5.7953
-1.7514
-6.3345
1.4838
-0.1338
0.1358
0.67498
-2.8297
-12.805
-16.579
-15.77
-15.77
-15.77
-15.77
-15.77
-15.77
-15.77
-15.77
-15.77
-15.77
-15.501
-16.309
-8.4912
-7.6824
-7.1432
-15.77
-7.6824
-15.501
-7.6824
-15.77
-7.1432
-7.952
-16.04
-15.501
-15.501
-15.77
-14.422
-6.6041
-8.2216
-5.2561
-0.67298
-8.4912
-7.1432
-7.4128
-7.952
-4.4473
1.4838
0.40539
0.94458
-0.1338
4.7189
9.5716
8.2236
9.5716
3.3709
0.94458
-4.7169
-7.952
-7.1432
-7.6824
-6.6041
-13.883
-15.77
-15.231
-15.501
-15.501
-15.231
-15.77
-7.4128
-7.4128
0.67498
0.67498
0.67498
0.67498
0.67498
0.67498
0.67498
0.67498
0.67498
0.94458
0.1358
3.1013
6.8756
2.5621
7.4148
-0.40339
0.94458
0.67498
0.67498
0.67498
0.67498
0.67498
0.67498
0.94458
-0.1338
5.7973
9.302
8.7628
8.4932
9.5716
2.8317
-0.40339
7.1452
9.8412
1.7534
0.1358
1.2142
-6.6041
-7.4128
-7.4128
-7.1432
-15.501
-7.4128
-7.1432
0.67498
-7.1432
0.40539
-7.1432
1.2142
2.023
8.2236
-0.1338
0.94458
0.67498
0.67498
1.2142
-1.7514
-8.2216
-7.1432
-7.1432
-7.952
-3.6385
1.4838
0.94458
-0.1338
6.3365
4.7189
0.1358
-0.1338
7.4148
2.5621
6.8756
3.1013
1.2142
-6.3345
-0.94258
1.2142
-0.1338
8.7628
0.94458
8.4932
1.2142
0.67498
0.67498
0.67498
0.67498
0.67498
0.67498
0.67498
0.67498
0.67498
0.67498
0.67498
0.67498
0.67498
0.67498
0.40539
1.4838
-2.5601
-5.2561
1.7534
0.67498
-0.1338
5.2581
5.5277
-0.40339
0.94458
0.67498
0.67498
0.67498
0.67498
0.67498
0.67498
0.67498
0.67498
0.67498
0.67498
0.67498
0.67498
0.67498
0.67498
0.67498
0.67498
0.67498
0.67498
0.67498
0.67498
0.67498
0.40539
1.4838
8.4932
0.1358
-0.1338
-7.952
-7.6824
-5.2561
-0.94258
-6.3345
1.7534
0.67498
-0.1338
4.4493
5.5277
3.6405
6.3365
-0.40339
0.67498
1.4838
-3.9081
-7.952
-7.1432
-7.1432
-8.2216
-1.7514
1.2142
0.67498
0.40539
1.4838
-6.0649
-7.6824
-7.4128
-7.1432
-7.952
0.67498
-6.8736
-7.4128
-7.4128
-7.4128
-7.1432
-7.1432
-7.1432
-7.1432
-7.1432
-7.1432
-7.1432
-7.1432
-7.1432
-7.6824
-4.7169
-0.67298
-6.6041
5.2581
6.6061
-0.1338
1.2142
0.94458
0.67498
1.7534
-4.1777
-3.6385
1.4838
1.4838
-4.1777
-7.952
-7.1432
-7.1432
-7.1432
-7.1432
-7.4128
-6.3345
-13.883
-15.501
-15.231
-14.422
-23.049
-15.77
-14.961
-15.231
-14.961
-23.049
-23.049
-23.319
-22.241
-15.231
-22.78
-14.153
-15.231
-14.961
-14.692
-15.501
-12.266
-8.2216
-16.04
-14.153
-16.309
-7.952
-0.40339
-6.8736
-11.187
-10.648
-10.648
-11.187
-5.7953
-6.8736
-6.6041
-6.6041
-6.6041
-6.3345
-7.4128
-0.40339
1.7534
1.2142
1.4838
1.4838
1.2142
2.023
-6.3345
0.94458
1.4838
1.4838
1.4838
1.4838
1.4838
0.94458
-6.3345
1.2142
-6.6041
2.2925
1.2142
1.4838
1.4838
1.2142
2.023
-0.94258
-7.4128
-7.1432
-3.6385
2.023
2.023
-2.2905
-6.3345
-11.187
-11.187
-5.7953
-6.0649
-11.187
-16.04
-9.0304
-6.0649
-6.8736
-5.5257
-12.805
-14.692
-15.231
-7.6824
-6.0649
-7.1432
1.4838
-6.3345
1.4838
-6.0649
-6.3345
-6.3345
1.4838
-6.3345
2.2925
0.94458
-7.1432
-4.9865
1.2142
-7.1432
-6.0649
-6.3345
-6.3345
-6.3345
-6.6041
-5.7953
-9.0304
-15.231
-14.153
-14.422
-14.422
-14.422
-14.422
-14.422
-13.883
-15.231
-8.4912
-10.648
-15.77
-8.2216
-5.7953
-6.3345
-6.3345
-5.2561
-13.613
-7.6824
-5.2561
-13.613
-13.883
-21.971
-21.701
-37.877
-46.234
-54.322
-62.41
-71.037
-87.752
-103.93
-121.45
-144.91
-163.51
-194.51
-211.77
-231.72
-231.18
-238.45
-237.92
-232.79
-214.73
-196.13
-166.74
-133.58
-97.996
-50.548
-6.6041
43.81
96.65
154.61
222.01
287.52
353.03
418.82
483.52
551.73
596.75
644.2
679.51
712.4
729.93
746.64
740.17
723.46
698.11
673.04
631.26
597.83
573.02
564.67
556.31
555.77
544.99
516.95
472.46
424.48
379.99
322.03
273.23
224.71
187.23
151.65
111.21
83.71
54.324
28.713
8.4932
-8.7608
-19.005
-37.607
-49.2
-56.479
-65.915
-67.532
-73.463
-76.159
-75.89
-74.542
-82.899
-76.429
-82.63
-76.698
-75.081
-74.811
-82.63
-82.899
-90.987
-82.899
-82.899
-90.987
-90.717
-90.717
-90.448
-90.717
-89.1
-82.899
-89.639
-81.012
-82.36
-81.282
-83.978
-90.448
-89.369
-89.369
-89.639
-88.291
-93.413
-94.222
-88.83
-85.056
-79.934
-81.282
-79.664
-85.595
-89.369
-87.482
-94.222
-96.648
-96.918
-89.909
-87.482
-88.021
-87.752
-87.752
-87.482
-87.482
-87.482
-87.213
-87.213
-87.213
-86.943
-87.213
-94.761
-86.673
-95.3
-94.492
-94.492
-94.492
-94.492
-94.222
-94.761
-91.526
-87.213
-95.031
-93.413
-93.683
-94.222
-89.909
-85.325
-81.012
-80.203
-86.134
-84.786
-85.056
-84.786
-84.786
-84.786
-83.708
-90.178
-92.874
-92.065
-92.605
-91.526
-98.805
-100.42
-99.614
-100.42
-92.065
-91.526
-91.257
-99.344
-91.257
-99.344
-90.987
-99.344
-98.805
-98.805
-98.805
-98.266
-100.15
-105.28
-99.075
-107.16
-106.35
-103.39
-99.344
-107.43
-102.58
-96.648
-97.996
-96.379
-102.04
-101.23
-100.42
-105.81
-105.81
-99.075
-101.5
-104.47
-109.86
-113.09
-112.02
-113.09
-105.55
-103.66
-103.12
-110.67
-112.02
-110.94
-119.02
-119.29
-119.29
-111.21
-110.94
-118.76
-110.4
-110.67
-110.4
-110.4
-110.13
-110.4
-108.78
-100.96
-102.04
-100.96
-103.93
-109.86
-111.75
-118.22
-116.87
-116.87
-117.95
-112.28
-111.75
-117.41
-117.14
-110.94
-112.28
-116.87
-115.79
-115.79
-116.06
-114.71
-121.72
-123.88
-123.07
-123.34
-122.53
-129.81
-131.7
-123.07
-122.8
-114.71
-114.17
-114.17
-114.17
-122.26
-121.45
-113.09
-114.44
-120.91
-113.9
-120.91
-112.02
-113.09
-112.82
-112.55
-113.09
-110.13
-102.85
-107.16
-113.09
-111.75
-112.82
-107.97
-102.85
-103.93
-103.12
-104.2
-98.266
-94.492
-95.031
-94.761
-94.761
-94.761
-94.492
-94.492
-94.492
-94.222
-94.761
-86.943
-86.404
-78.316
-77.777
-77.777
-77.777
-69.419
-61.332
-69.15
-61.332
-69.15
-60.523
-61.332
-60.792
-61.332
-59.444
-51.896
-52.705
-52.974
-50.548
-42.999
-47.313
-52.974
-52.974
-48.93
-43.269
-44.347
-44.078
-44.078
-43.808
-44.886
-38.955
-35.181
-35.99
-35.72
-35.72
-35.72
-35.72
-35.72
-35.72
-35.451
-35.451
-35.451
-35.451
-35.451
-35.451
-35.451
-35.451
-35.181
-35.181
-35.181
-35.181
-35.181
-35.181
-35.181
-34.911
-35.181
-33.833
-24.397
-18.736
-16.849
-10.109
-10.378
-13.613
-19.005
-21.701
-27.632
-26.554
-26.824
-26.554
-26.554
-26.554
-26.284
-27.632
-20.084
-24.397
-20.353
-24.397
-20.893
-17.927
-17.927
-24.936
-27.363
-19.275
-17.927
-18.197
-18.197
-18.197
-18.197
-18.197
-18.197
-18.197
-17.657
-9.5696
-10.918
-18.466
-17.927
-18.197
-17.927
-17.927
-17.927
-17.657
-18.736
-14.961
-11.726
-19.005
-17.927
-17.118
-21.971
-23.049
-16.849
-17.927
-17.657
-17.927
-17.388
-18.466
-12.266
-9.3
-9.0304
-15.501
-18.197
-17.657
-17.388
-18.197
-10.648
-9.3
-9.5696
-9.5696
-9.0304
-17.118
-17.657
-17.388
-17.388
-17.388
-17.388
-17.388
-17.388
-17.388
-17.388
-17.388
-17.388
-17.388
-17.388
-17.388
-17.118
-17.118
-17.388
-16.579
-20.353
-26.015
-24.936
-25.206
-25.206
-25.206
-24.936
-24.936
-24.936
-24.936
-25.206
-23.858
-31.407
-28.441
-17.118
-23.858
-18.466
-16.309
-16.579
-17.388
-8.7608
-16.04
-16.849
-16.579
-16.579
-16.579
-16.579
-16.579
-16.309
-17.388
-24.128
-16.579
-25.745
-23.049
-15.77
-16.849
-16.04
-18.466
-25.745
-21.701
-15.501
-16.579
-16.309
-15.501
-19.814
-26.015
-19.814
-15.501
-16.579
-14.961
-22.241
-18.736
-20.893
-24.667
-24.667
-18.197
-15.231
-17.118
-8.2216
-15.231
-8.4912
-14.961
-16.04
-16.309
-8.2216
-7.6824
-7.952
-7.952
-7.952
-7.4128
0.67498
0.1358
0.1358
0.40539
-0.94258
-8.4912
-7.1432
-9.5696
-16.579
-15.501
-15.77
-15.501
-16.309
-12.535
-7.1432
-7.1432
-11.457
-16.309
-16.309
-11.187
-6.8736
-7.6824
-7.6824
-7.4128
-7.952
-6.6041
-14.422
-9.5696
-7.952
-0.1338
-6.6041
-0.94258
0.67498
0.94458
-6.8736
-7.6824
-7.4128
-7.4128
-15.501
-15.231
-7.6824
-14.961
1.4838
0.40539
0.67498
0.67498
0.67498
0.67498
0.67498
0.67498
0.67498
0.67498
0.40539
1.2142
-2.2905
-8.2216
-7.1432
-7.4128
-7.4128
-7.4128
-7.4128
-7.4128
-7.4128
-7.4128
-7.4128
-7.4128
-7.4128
-7.1432
-8.2216
-1.2122
1.2142
0.67498
0.67498
0.67498
1.2142
-6.6041
-7.952
0.40539
0.67498
0.67498
0.67498
0.67498
-7.6824
-7.1432
-7.4128
-7.6824
-6.0649
-0.1338
-6.3345
-0.1338
-6.8736
2.5621
-2.2905
-5.7953
1.7534
1.2142
-2.2905
-8.2216
-7.1432
-7.4128
-7.1432
-7.1432
-7.4128
-6.8736
-8.2216
-2.2905
1.4838
0.67498
0.67498
1.7534
-5.2561
-7.6824
-7.1432
-7.1432
-7.1432
-7.1432
-7.1432
-7.1432
-7.1432
-6.8736
-14.961
-15.231
-15.231
-14.961
-6.8736
-7.1432
-7.1432
-7.1432
-6.8736
-7.4128
-5.2561
0.1358
-7.952
-7.4128
-4.7169
1.2142
4.1797
6.8756
0.94458
-2.8297
-3.6385
-1.4818
-9.0304
-1.7514
-2.8297
-7.952
-6.8736
-6.8736
-7.1432
-6.0649
-13.344
-10.378
-0.40339
2.2925
-6.6041
0.1358
-5.5257
-7.1432
-6.8736
-6.8736
-7.4128
1.2142
-6.8736
1.2142
1.2142
1.2142
1.2142
1.2142
1.2142
1.2142
1.2142
1.2142
1.2142
1.2142
1.2142
1.2142
0.94458
1.7534
-1.4818
-7.6824
-6.6041
-6.8736
-6.8736
-6.8736
-6.8736
-6.8736
-6.8736
-6.6041
-7.952
-0.67298
-3.6385
-7.6824
-6.6041
-6.8736
-6.8736
-6.8736
-6.6041
-7.4128
0.1358
2.2925
-6.8736
0.94458
-6.3345
-6.8736
-6.8736
-6.8736
-6.8736
-6.8736
-6.6041
-7.4128
-15.231
-14.692
-14.692
-15.231
-12.805
-7.6824
-15.77
-14.153
-15.231
-11.996
-5.7953
-6.8736
-6.6041
-5.7953
-10.109
-15.501
-14.422
-14.961
-13.613
-19.545
-23.049
-23.319
-17.118
-14.153
-13.344
-21.432
-15.77
-20.353
-23.049
-22.241
-23.049
-14.961
-14.153
-14.153
-14.692
-6.3345
-14.153
-14.153
-13.883
-6.3345
-14.692
-14.153
-13.883
-14.961
-23.049
-20.893
-11.726
-5.5257
-6.0649
-6.6041
-3.6385
2.8317
2.5621
-0.94258
-6.6041
-6.8736
-1.2122
-2.021
-2.8297
3.1013
1.7534
2.023
2.023
2.023
2.023
2.023
2.023
2.023
2.023
2.023
2.023
1.7534
2.8317
-6.0649
1.7534
-5.7953
2.023
-5.7953
-6.0649
-6.0649
-6.0649
-5.5257
2.5621
1.7534
2.2925
0.94458
-6.6041
-5.7953
-6.0649
-6.0649
-5.5257
-8.2216
-14.692
-13.883
-13.344
-17.118
-22.78
-21.432
-22.78
-17.927
-12.805
-14.961
-9.0304
-4.9865
-5.7953
-5.7953
-5.7953
-5.7953
-5.7953
-6.0649
-4.9865
-12.535
-13.883
-14.422
-6.3345
-6.0649
2.2925
-5.5257
2.2925
-5.5257
2.2925
-5.7953
-5.5257
-5.7953
-5.7953
-5.5257
-6.6041
-14.153
-13.883
-11.726
-7.1432
-12.266
-6.3345
-16.04
-7.4128
1.2142
-6.0649
-8.4912
-14.422
-13.344
-13.613
-13.344
-13.613
-12.535
-18.466
-21.701
-25.476
-35.99
-35.99
-49.469
-53.244
-64.567
-82.09
-98.266
-114.71
-131.16
-147.06
-170.79
-195.86
-212.57
-228.75
-237.11
-236.84
-228.21
-219.31
-202.6
-184.81
-150.57
-117.95
-83.978
-40.573
9.302
58.368
109.32
169.17
239
308.28
364.63
440.65
509.67
559.81
611.31
650.4
687.87
715.1
735.59
741.52
735.86
716.99
683.56
657.14
619.66
581.92
559.81
558.46
543.91
534.47
511.29
486.48
446.58
396.98
347.1
297.5
247.62
206.38
173.22
140.06
106.9
74.544
50.011
26.286
9.0324
-15.231
-30.868
-45.965
-52.974
-62.14
-66.993
-69.419
-75.89
-74.811
-74.003
-78.316
-83.438
-82.36
-82.63
-82.36
-82.09
-83.169
-77.238
-72.655
-79.664
-82.63
-81.012
-87.752
-90.987
-82.899
-81.282
-81.012
-88.561
-89.369
-89.1
-89.1
-89.1
-88.83
-88.83
-88.83
-88.83
-97.188
-95.57
-88.83
-96.109
-87.482
-88.291
-88.291
-86.134
-79.125
-79.125
-82.63
-85.325
-81.012
-88.561
-86.943
-87.213
-87.482
-85.865
-92.335
-90.178
-91.257
-90.987
-85.595
-86.673
-86.404
-86.404
-86.134
-86.134
-86.404
-85.325
-92.605
-93.953
-94.222
-86.404
-85.325
-85.595
-85.056
-93.144
-93.144
-93.144
-93.144
-92.335
-84.786
-93.413
-92.335
-92.605
-92.335
-92.335
-92.874
-89.909
-85.325
-93.144
-91.796
-91.257
-94.492
-100.15
-100.15
-95.031
-95.031
-96.379
-90.178
-91.257
-90.717
-90.987
-90.717
-90.717
-89.909
-95.031
-105.81
-100.42
-97.727
-98.266
-97.996
-97.996
-97.727
-97.727
-97.457
-97.457
-97.457
-97.457
-97.188
-105.01
-96.648
-96.918
-96.918
-95.84
-89.1
-96.918
-97.996
-103.12
-97.457
-102.85
-96.918
-105.01
-103.66
-103.66
-104.47
-99.614
-97.996
-104.47
-102.85
-103.12
-102.85
-102.85
-102.85
-102.58
-102.85
-101.5
-107.97
-110.94
-110.13
-110.13
-110.13
-109.05
-117.14
-110.94
-109.32
-108.78
-117.14
-109.59
-109.05
-109.05
-108.78
-109.05
-116.6
-107.97
-109.05
-116.87
-116.06
-116.06
-116.06
-115.52
-117.41
-124.42
-123.34
-123.34
-123.34
-123.07
-123.07
-122.8
-122.8
-122.53
-122.53
-122.26
-122.26
-122.26
-121.99
-121.99
-121.72
-121.72
-121.45
-121.45
-121.18
-120.91
-121.72
-113.9
-113.36
-105.01
-111.48
-112.55
-112.28
-112.28
-112.02
-112.02
-111.75
-111.75
-111.48
-111.75
-110.4
-103.66
-110.94
-102.04
-103.12
-102.58
-102.58
-102.58
-102.58
-102.31
-102.85
-99.344
-93.144
-93.953
-94.492
-89.909
-84.786
-85.595
-85.325
-85.325
-85.056
-85.865
-79.664
-76.159
-77.777
-70.767
-68.341
-68.341
-69.15
-61.601
-59.984
-59.984
-60.792
-52.165
-59.984
-52.435
-51.896
-51.896
-51.896
-51.626
-51.626
-51.626
-51.896
-50.548
-42.73
-43.538
-43.269
-43.808
-40.842
-36.799
-42.19
-33.294
-38.686
-40.842
-34.103
-34.642
-38.147
-44.617
-38.686
-34.103
-34.911
-34.372
-35.72
-28.441
-32.215
-29.52
-26.015
-25.476
-33.563
-28.441
-26.015
-26.554
-26.284
-26.284
-26.284
-26.015
-26.554
-18.466
-18.197
-18.197
-18.197
-17.927
-18.466
-26.554
-26.015
-26.015
-26.284
-24.667
-16.579
-20.353
-24.667
-16.849
-18.197
-17.657
-17.927
-17.657
-17.657
-17.657
-17.657
-17.657
-17.657
-17.657
-17.657
-17.657
-17.657
-17.657
-17.388
-18.736
-10.648
-15.231
-17.927
-17.388
-17.388
-17.388
-17.388
-17.388
-17.388
-17.118
-17.657
-9.3
-17.388
-17.388
-17.388
-17.388
-17.388
-17.118
-17.118
-17.118
-17.118
-17.118
-17.118
-17.118
-17.118
-17.118
-16.849
-17.927
-13.344
-11.996
-14.692
-7.952
-9.3
-9.0304
-7.952
-13.613
-16.579
-22.78
-19.545
-22.241
-20.084
-16.04
-17.118
-16.849
-16.849
-16.579
-17.388
-9.8392
-8.4912
-8.7608
-8.4912
-9.0304
-0.67298
-8.4912
-0.67298
7.4148
-0.67298
7.4148
-1.7514
-9.5696
-17.927
-25.206
-24.128
-26.554
-31.676
-23.588
-24.936
-24.397
-24.667
-24.397
-24.397
-24.397
-24.397
-24.397
-24.397
-24.397
-24.128
-25.476
-18.466
-21.432
-19.814
-15.501
-16.309
-16.309
-14.961
-23.319
-17.118
-23.049
-17.657
-15.77
-16.04
-15.77
-16.309
-8.4912
-7.6824
-15.77
-16.04
-15.77
-7.6824
-7.952
-7.952
-6.8736
-0.40339
-7.1432
-0.1338
-9.3
-5.2561
-0.94258
-8.7608
-8.2216
-4.7169
-1.7514
-8.7608
-7.4128
-7.952
-7.6824
-7.6824
-8.4912
-3.6385
1.7534
-4.4473
-9.3
-2.2905
0.94458
0.40539
-0.67298
7.4148
1.7534
6.3365
8.7628
9.0324
1.2142
0.1358
-0.1338
7.954
8.2236
8.4932
0.1358
8.2236
0.1358
8.7628
8.2236
8.2236
8.2236
8.2236
8.2236
8.2236
8.2236
8.2236
8.2236
8.2236
8.2236
7.954
9.0324
4.1797
3.3709
5.2581
1.7534
14.155
11.728
11.728
17.12
16.042
16.311
16.042
16.042
16.042
16.042
16.042
15.772
16.851
9.302
7.6844
7.954
7.954
7.954
7.954
7.954
7.954
7.954
7.954
7.954
7.954
7.954
7.954
7.954
7.954
7.954
7.4148
10.111
14.424
8.7628
16.851
16.042
13.076
7.1452
7.1452
11.998
12.268
10.38
16.851
15.503
15.503
16.851
9.5716
13.076
10.92
6.8756
7.6844
7.6844
6.8756
13.885
16.581
8.4932
7.4148
6.8756
15.503
7.6844
14.963
15.503
15.503
7.4148
7.4148
7.4148
7.4148
7.4148
7.1452
8.2236
16.042
15.233
15.503
15.503
15.503
15.233
15.233
15.233
15.233
15.233
15.233
15.233
15.233
15.233
15.233
15.233
14.963
16.042
10.111
6.3365
7.1452
7.1452
6.3365
12.807
16.581
7.6844
13.346
15.503
14.963
14.963
15.503
7.4148
6.8756
6.8756
6.8756
6.8756
6.8756
6.8756
6.8756
6.8756
6.8756
6.6061
8.4932
14.155
5.7973
7.1452
6.0669
9.5716
13.346
5.7973
6.3365
9.8412
15.503
15.503
10.92
6.6061
2.8317
-2.021
-1.2122
-1.4818
-1.2122
-1.2122
-1.2122
-1.2122
-1.4818
-0.94258
-2.2905
6.3365
-0.67298
6.0669
-0.94258
6.3365
-0.67298
-0.94258
-9.3
-1.4818
-1.2122
-1.2122
6.8756
6.6061
6.8756
6.6061
6.6061
6.8756
6.3365
7.954
16.042
12.268
7.954
15.772
14.424
14.694
14.694
14.963
13.885
18.199
23.051
23.59
17.12
19.277
17.929
18.468
23.321
22.243
22.512
22.512
21.703
28.443
31.409
24.669
14.424
21.973
14.694
21.434
22.512
22.243
22.243
22.243
22.243
22.243
22.243
21.703
13.076
5.5277
6.0669
5.7973
6.3365
4.4493
-3.3689
0.67498
4.1797
-0.94258
7.6844
2.5621
-2.021
-5.7953
-7.6824
-0.94258
-2.2905
-2.021
-2.2905
-0.94258
-7.6824
-5.7953
-1.4818
-1.4818
-7.6824
-10.648
-10.378
-9.0304
-17.388
-11.726
-9.5696
-10.109
-9.8392
-10.378
-2.5601
-2.021
-2.021
-2.021
-2.021
-2.021
-2.021
-2.021
-2.021
-2.021
-2.021
-2.021
-2.021
-2.021
-2.021
-2.021
-2.021
-2.021
-2.021
-2.021
-1.7514
-2.5601
1.4838
7.1452
4.9885
10.38
14.963
13.885
14.155
14.155
14.155
14.155
14.155
14.155
13.885
14.155
13.615
14.963
6.0669
13.615
6.0669
13.615
6.0669
13.885
6.0669
5.7973
6.0669
14.155
13.885
13.885
13.885
14.155
12.807
4.9885
6.0669
5.7973
5.7973
5.7973
5.7973
5.7973
5.7973
5.7973
5.7973
5.5277
6.6061
1.4838
-2.021
-7.1432
-6.8736
-1.2122
-3.6385
4.1797
-0.1338
3.3709
0.94458
-4.1777
4.9885
-0.40339
-2.8297
-2.2905
-2.2905
-2.2905
-2.2905
-2.2905
-2.2905
-2.2905
-2.5601
5.7973
-2.2905
5.7973
-2.8297
-2.2905
-2.2905
-2.2905
-2.2905
-2.2905
-2.2905
-2.8297
0.1358
3.6405
-0.40339
4.1797
-3.3689
-2.021
-2.2905
-3.3689
2.023
2.5621
-3.3689
-2.021
-2.2905
-2.2905
-2.2905
-2.5601
-1.2122
-9.0304
-4.1777
-7.1432
-16.309
-25.206
-26.015
-32.755
-41.382
-49.469
-57.827
-65.376
-81.551
-97.727
-122.26
-138.71
-163.24
-179.68
-204.22
-219.58
-226.05
-227.13
-231.98
-214.73
-206.37
-187.23
-159.73
-126.57
-90.987
-50.278
-2.8297
53.246
103.93
166.21
232.26
298.04
363.28
429.87
490.53
547.68
600.52
643.93
679.24
705.39
725.61
721.84
713.21
691.37
664.95
640.15
607.8
573.29
554.42
544.99
544.45
528
502.93
477.59
443.62
393.47
353.3
318.53
268.65
227.67
187.77
153
114.44
89.102
57.02
32.757
10.92
-8.7608
-27.632
-38.686
-48.661
-51.357
-55.94
-59.714
-64.567
-63.488
-63.758
-63.488
-63.488
-63.758
-62.68
-69.15
-71.846
-71.307
-70.228
-78.586
-71.846
-77.507
-79.394
-78.316
-86.404
-86.673
-86.673
-86.673
-86.404
-86.134
-78.046
-78.316
-78.046
-78.046
-77.777
-77.777
-77.777
-77.507
-78.046
-75.081
-71.307
-76.159
-68.071
-68.88
-71.307
-81.012
-85.865
-83.978
-88.83
-93.683
-92.605
-92.605
-92.605
-92.335
-92.335
-92.335
-92.065
-92.065
-91.796
-92.605
-85.325
-83.169
-83.708
-83.438
-83.169
-83.978
-75.081
-82.899
-75.081
-74.811
-74.811
-82.899
-83.169
-90.448
-82.899
-90.178
-82.63
-91.257
-89.909
-90.178
-90.448
-88.021
-81.012
-82.09
-81.282
-82.36
-77.777
-75.89
-82.36
-81.012
-81.282
-81.012
-81.012
-81.282
-79.934
-85.865
-89.369
-88.561
-88.561
-88.561
-87.482
-94.492
-97.188
-89.369
-86.943
-95.84
-88.291
-95.031
-95.84
-95.57
-95.57
-95.3
-95.3
-95.031
-95.57
-102.58
-95.031
-103.66
-102.58
-102.58
-102.58
-102.31
-102.31
-102.04
-102.04
-101.77
-102.58
-97.996
-96.648
-99.075
-92.605
-92.605
-98.266
-96.918
-96.648
-102.04
-100.69
-100.96
-100.69
-100.96
-99.344
-107.43
-101.77
-106.08
-108.51
-107.97
-107.7
-108.24
-100.15
-99.344
-99.075
-107.16
-107.16
-107.16
-106.89
-106.89
-106.89
-106.62
-106.62
-106.35
-106.35
-105.81
-108.24
-112.82
-106.89
-114.98
-113.36
-113.63
-113.63
-112.55
-117.14
-118.49
-112.02
-113.09
-113.09
-111.75
-117.95
-116.33
-111.48
-112.28
-112.02
-112.02
-111.75
-111.75
-111.75
-111.48
-111.48
-111.21
-111.21
-110.94
-110.94
-110.94
-110.67
-110.67
-110.4
-110.4
-102.04
-102.31
-102.04
-102.04
-101.77
-101.77
-101.5
-101.5
-101.5
-101.23
-101.23
-100.96
-100.96
-100.69
-101.5
-97.457
-91.796
-92.335
-93.413
-87.213
-88.291
-88.561
-82.899
-83.708
-84.517
-78.316
-74.811
-75.62
-75.351
-75.081
-76.159
-68.341
-67.532
-59.175
-66.454
-59.714
-58.905
-51.087
-50.548
-50.548
-50.548
-42.46
-50.278
-41.921
-42.46
-42.19
-42.46
-40.842
-34.642
-42.73
-42.19
-39.495
-35.72
-40.034
-35.72
-40.034
-33.294
-29.789
-28.711
-30.868
-24.667
-24.667
-30.868
-28.711
-30.059
-29.25
-24.397
-25.476
-25.206
-25.206
-25.206
-25.206
-25.206
-25.206
-25.206
-25.206
-25.206
-24.936
-24.936
-24.936
-24.936
-24.936
-24.936
-16.849
-16.579
-8.7608
-17.388
-16.849
-15.77
-7.952
-8.7608
-8.7608
-8.7608
-8.7608
-8.7608
-8.4912
-9.5696
-4.9865
-3.6385
-5.7953
-2.8297
-9.8392
-8.2216
-8.7608
-8.4912
-8.4912
-8.7608
-8.2216
-9.3
-3.0993
0.1358
-0.67298
-0.40339
-0.40339
-0.40339
-0.40339
-0.40339
-0.40339
-0.40339
-0.40339
-0.40339
-0.40339
-0.40339
-0.40339
-0.40339
-0.40339
-0.67298
0.1358
7.4148
-1.4818
0.67498
7.954
7.954
5.5277
0.94458
6.6061
-1.7514
-0.1338
-0.67298
-0.67298
0.1358
-3.3689
-10.918
-0.94258
9.0324
7.1452
7.4148
8.2236
2.5621
-1.2122
-0.40339
-0.67298
0.1358
-6.3345
-10.109
-1.2122
-6.8736
-9.0304
-8.7608
-7.952
-16.309
-9.3
-8.2216
-8.7608
-0.67298
-0.40339
-0.40339
7.954
7.4148
7.4148
8.2236
16.311
15.503
15.503
16.042
13.885
6.6061
7.6844
7.4148
7.4148
7.954
4.4493
-1.4818
-0.40339
-0.67298
-0.40339
-0.94258
0.1358
-4.9865
-9.3
-8.4912
-8.7608
-8.4912
-8.4912
-8.7608
-8.4912
-9.3
-2.021
-0.1338
-0.67298
-0.40339
-0.40339
-0.94258
7.1452
7.6844
7.4148
7.4148
7.4148
7.4148
7.6844
7.1452
-0.94258
-0.40339
-0.94258
0.94458
6.6061
0.1358
8.4932
7.4148
6.8756
10.38
13.615
6.6061
6.8756
11.189
12.807
6.3365
7.954
6.6061
11.459
17.39
9.302
12.807
9.8412
12.268
15.233
21.164
23.051
29.522
31.678
31.139
31.948
24.13
22.782
23.59
16.042
6.8756
14.963
7.1452
6.8756
6.8756
6.8756
7.6844
14.694
7.1452
15.772
14.963
14.424
17.12
21.434
15.772
24.13
22.512
23.051
22.782
22.782
22.782
22.782
22.782
22.512
23.86
17.12
19.547
17.659
18.738
23.321
22.512
22.243
23.59
15.233
21.164
16.311
13.885
14.424
14.424
14.424
14.424
14.424
14.424
14.424
14.424
22.512
22.243
22.243
22.243
22.243
22.243
22.243
22.243
22.243
22.243
21.973
21.973
21.973
21.973
21.973
21.973
21.973
21.973
21.973
21.973
21.973
21.973
21.434
23.051
15.772
19.007
17.12
12.807
13.885
13.615
13.615
13.615
13.615
13.885
13.076
20.895
21.703
21.973
13.615
21.164
21.434
21.434
21.434
21.164
13.615
21.434
12.537
13.615
13.346
13.346
12.807
15.503
19.547
14.963
19.277
15.233
19.007
14.963
22.512
20.625
22.243
16.311
16.311
21.973
20.895
21.164
20.895
21.164
20.895
21.973
14.963
12.807
11.998
20.355
13.885
19.277
21.164
20.895
20.625
21.164
13.076
12.537
12.807
12.807
12.537
13.076
20.625
11.728
13.615
21.164
20.895
19.277
11.998
12.268
14.963
19.277
11.459
12.807
12.268
13.076
9.0324
3.6405
3.9101
8.2236
13.346
11.998
13.076
7.6844
2.5621
10.92
6.0669
10.65
6.0669
10.65
6.3365
3.9101
4.1797
4.9885
-3.6385
3.9101
-3.3689
3.6405
4.4493
4.1797
4.1797
4.1797
-3.6385
4.1797
-4.4473
-3.0993
4.9885
2.5621
-2.8297
3.6405
-4.7169
-3.6385
-3.9081
-3.9081
-3.6385
-3.9081
-2.8297
-7.6824
-9.3
-2.8297
-3.9081
-3.6385
-3.6385
-4.7169
0.94458
4.9885
4.1797
4.1797
4.4493
3.3709
10.111
13.076
11.189
19.547
13.885
11.998
12.268
12.268
12.268
12.268
11.998
12.268
4.1797
4.1797
4.4493
11.998
4.1797
12.807
11.998
11.998
12.537
10.65
3.3709
4.1797
4.1797
3.3709
6.6061
12.807
12.537
9.0324
2.8317
4.9885
-0.1338
-4.9865
-3.9081
-4.4473
-3.0993
-10.109
-7.4128
-3.3689
-4.1777
-3.9081
-4.1777
-3.9081
-4.9865
3.3709
-2.5601
-4.4473
-3.9081
-3.9081
-4.1777
-3.6385
-11.996
-4.1777
-3.9081
-3.9081
-3.9081
-4.1777
-3.3689
4.4493
4.1797
2.5621
-3.3689
4.9885
4.1797
2.5621
-7.1432
-12.535
-11.726
-11.996
-11.996
-12.266
-10.918
-16.579
-16.849
-10.918
-12.266
-11.726
-12.805
-6.8736
-3.0993
-4.1777
-3.3689
-4.9865
3.1013
-1.7514
-4.1777
-3.6385
-3.9081
-3.9081
-3.3689
-10.918
-19.275
-27.902
-27.632
-43.808
-52.165
-60.523
-76.698
-85.865
-109.59
-118.22
-144.37
-168.63
-192.89
-218.5
-238.72
-247.35
-264.34
-262.99
-247.08
-237.92
-216.62
-191.82
-163.51
-129.27
-97.188
-60.253
-14.692
40.305
97.459
160.81
222.28
277.55
342.25
401.02
465.72
518.3
567.63
603.49
628.56
645.54
654.71
647.16
630.72
605.1
588.12
546.6
513.17
480.01
464.11
456.29
454.67
436.88
419.35
391.86
360.04
333.35
302.35
272.7
235.22
206.11
168.63
142.48
111.21
87.484
62.682
37.07
16.311
0.94458
-16.579
-28.172
-35.451
-45.156
-46.504
-52.705
-54.592
-60.792
-63.219
-62.68
-62.68
-62.68
-62.41
-63.219
-54.592
-61.871
-62.14
-70.228
-70.228
-70.228
-70.228
-69.689
-61.332
-62.68
-70.228
-69.689
-69.959
-69.15
-71.576
-75.89
-71.037
-75.62
-71.307
-75.081
-70.767
-78.316
-76.698
-77.238
-75.89
-81.551
-81.282
-75.62
-76.698
-76.429
-76.429
-76.159
-76.159
-76.159
-76.159
-75.89
-76.159
-75.081
-82.36
-84.786
-75.89
-82.63
-83.708
-83.438
-83.169
-83.169
-83.169
-82.899
-82.899
-82.899
-82.899
-82.09
-74.003
-74.542
-74.272
-74.272
-74.272
-74.272
-74.003
-74.003
-74.003
-73.194
-76.698
-82.63
-81.551
-81.551
-81.551
-81.551
-81.282
-81.012
-82.09
-76.429
-71.576
-78.586
-81.282
-80.742
-80.742
-80.742
-80.473
-80.473
-80.473
-80.203
-80.203
-80.203
-79.934
-80.203
-79.664
-87.752
-79.664
-87.752
-87.482
-87.482
-88.291
-94.761
-87.752
-94.492
-87.752
-94.492
-85.865
-86.943
-86.673
-86.134
-89.1
-95.031
-94.761
-90.987
-85.325
-86.134
-85.865
-85.865
-86.134
-84.517
-91.526
-88.291
-89.909
-93.953
-94.222
-86.673
-90.448
-94.492
-85.595
-91.257
-93.144
-92.605
-92.605
-92.335
-92.335
-92.335
-92.065
-92.065
-92.065
-91.796
-92.065
-100.15
-99.614
-98.805
-90.717
-91.257
-92.605
-99.884
-98.805
-98.536
-100.96
-107.43
-106.89
-103.93
-96.918
-101.77
-106.89
-105.81
-106.08
-105.81
-105.81
-105.81
-105.55
-105.55
-105.28
-105.28
-105.28
-105.01
-105.01
-104.74
-104.74
-104.74
-104.47
-104.47
-104.2
-104.2
-104.2
-103.93
-103.93
-103.66
-103.66
-103.39
-103.93
-111.21
-102.85
-102.31
-94.222
-95.031
-94.492
-95.031
-92.605
-85.595
-86.673
-86.134
-86.134
-86.134
-85.865
-86.673
-82.36
-75.89
-82.899
-81.282
-81.012
-86.404
-85.056
-85.056
-85.865
-79.394
-76.429
-76.698
-77.777
-69.15
-75.62
-69.959
-68.88
-60.523
-67.802
-60.792
-60.253
-52.165
-51.896
-51.896
-51.896
-51.896
-51.626
-51.896
-50.817
-42.999
-43.538
-43.269
-43.538
-43.269
-44.078
-40.573
-37.338
-41.651
-33.833
-35.451
-34.911
-34.911
-34.911
-34.911
-34.911
-34.911
-34.911
-34.642
-34.642
-34.642
-34.642
-34.642
-34.642
-34.642
-34.642
-34.372
-34.372
-34.372
-34.372
-34.372
-34.372
-34.372
-34.372
-34.103
-34.103
-34.103
-34.103
-34.103
-34.103
-34.103
-33.833
-33.833
-33.833
-34.372
-31.946
-26.824
-34.911
-33.563
-33.563
-34.103
-31.676
-20.893
-20.084
-26.554
-25.206
-25.476
-25.745
-24.397
-31.137
-28.441
-29.52
-34.103
-32.755
-34.103
-27.363
-24.667
-25.476
-24.128
-32.485
-26.284
-24.667
-24.936
-24.936
-24.936
-24.936
-24.936
-24.936
-24.936
-24.936
-24.667
-24.667
-24.667
-24.667
-24.667
-24.667
-24.667
-24.667
-24.667
-24.667
-24.667
-24.397
-24.397
-24.397
-24.397
-24.397
-24.667
-23.588
-28.441
-33.024
-33.024
-27.632
-23.319
-24.667
-23.049
-30.868
-26.015
-29.789
-31.676
-39.495
-32.755
-39.225
-32.755
-38.686
-40.573
-32.215
-31.676
-31.676
-31.676
-31.676
-31.946
-39.764
-31.137
-31.676
-31.407
-31.407
-31.407
-31.407
-31.407
-31.407
-31.407
-31.137
-31.946
-28.172
-25.206
-32.215
-30.868
-31.137
-31.137
-31.407
-30.328
-35.181
-40.034
-37.877
-44.078
-47.313
-47.582
-40.842
-38.955
-32.755
-30.328
-30.059
-37.338
-38.686
-38.955
-31.407
-30.059
-30.868
-22.241
-30.059
-30.328
-30.328
-30.328
-30.059
-30.598
-38.686
-38.147
-37.068
-29.25
-30.059
-29.789
-30.059
-29.789
-29.789
-29.789
-29.789
-29.789
-29.789
-29.789
-29.789
-29.789
-29.52
-29.789
-28.711
-34.103
-38.147
-37.338
-37.607
-37.607
-37.068
-38.147
-31.137
-28.711
-29.25
-29.25
-29.25
-28.98
-29.52
-21.701
-20.623
-28.711
-28.98
-28.98
-28.98
-28.98
-28.711
-28.98
-28.172
-19.814
-21.971
-29.25
-28.441
-28.711
-28.711
-28.711
-28.711
-28.441
-28.441
-28.441
-28.441
-28.441
-28.441
-28.441
-28.441
-28.441
-28.172
-29.25
-23.319
-19.814
-19.275
-26.554
-22.78
-19.545
-19.545
-26.554
-28.441
-27.902
-27.902
-27.902
-27.902
-27.902
-27.902
-27.902
-27.902
-27.902
-27.902
-27.363
-19.814
-27.632
-18.736
-20.893
-28.172
-27.902
-25.745
-20.893
-26.554
-18.466
-19.814
-19.545
-18.736
-22.241
-28.172
-27.093
-27.093
-28.172
-23.049
-18.466
-19.275
-19.005
-19.005
-19.275
-18.197
-24.667
-27.632
-27.093
-27.093
-27.093
-27.093
-27.093
-26.824
-26.824
-26.824
-26.824
-26.824
-27.093
-18.736
-18.736
-18.736
-18.466
-19.275
-27.093
-26.554
-26.554
-26.554
-26.554
-26.554
-26.554
-26.554
-26.554
-26.554
-26.284
-27.093
-23.319
-17.388
-18.736
-17.118
-23.049
-22.78
-17.388
-17.657
-23.049
-26.824
-26.015
-26.284
-26.015
-26.015
-26.015
-26.015
-26.015
-26.015
-26.015
-26.015
-26.015
-25.745
-25.745
-25.745
-25.745
-25.745
-33.833
-33.563
-33.833
-33.024
-25.206
-25.745
-25.476
-25.206
-26.824
-34.642
-31.407
-24.667
-24.936
-27.902
-33.833
-35.181
-45.695
-49.2
-52.705
-58.097
-57.018
-57.018
-57.827
-52.435
-48.122
-50.009
-43.269
-41.112
-35.181
-31.946
-33.833
-25.206
-30.868
-32.755
-33.024
-24.667
-31.676
-32.485
-32.215
-32.215
-32.215
-32.215
-32.215
-31.946
-23.858
-24.128
-23.858
-24.397
-22.78
-15.231
-16.579
-14.153
-7.1432
-7.952
-7.6824
-7.952
-7.1432
-10.918
-16.04
-19.275
-23.858
-28.172
-28.441
-22.78
-23.858
-23.588
-23.319
-24.667
-17.927
-15.77
-9.8392
-7.1432
-6.8736
-14.153
-14.961
-23.049
-16.04
-22.51
-23.858
-23.319
-23.588
-15.501
-15.231
-23.319
-23.319
-23.319
-23.319
-23.319
-23.319
-23.319
-23.319
-23.319
-23.049
-23.049
-23.049
-23.049
-23.049
-23.049
-23.049
-23.049
-23.049
-22.78
-23.858
-18.197
-18.197
-24.128
-21.701
-27.902
-31.407
-30.598
-30.598
-31.676
-23.858
-28.441
-30.868
-31.137
-23.858
-22.241
-22.51
-22.51
-22.51
-22.241
-22.78
-14.422
-22.241
-14.153
-14.422
-14.153
-14.153
-15.231
-21.971
-13.344
-14.422
-14.153
-14.153
-14.153
-14.153
-14.153
-13.613
-16.849
-22.51
-24.397
-33.833
-41.921
-49.2
-62.14
-75.081
-82.63
-89.909
-103.93
-115.25
-127.11
-149.76
-175.37
-193.7
-210.42
-219.85
-228.48
-229.29
-230.1
-214.73
-205.56
-189.66
-173.21
-140.86
-107.7
-66.454
-33.294
16.581
66.186
124.15
182.38
247.62
305.32
372.45
434.99
496.19
566.28
610.77
648.51
681.4
707.82
724
730.2
719.68
704.58
674.66
635.3
598.36
560.08
524.5
515.6
518.3
506.16
489.18
465.72
442.81
397.25
354.92
298.04
261.64
213.92
178.88
138.17
104.47
71.039
46.236
13.346
-3.0993
-19.545
-27.902
-44.347
-52.165
-59.444
-59.984
-67.802
-66.454
-68.611
-75.351
-76.698
-83.708
-82.63
-82.36
-84.517
-95.031
-95.84
-89.1
-91.257
-86.134
-81.282
-82.09
-81.821
-82.09
-80.742
-86.943
-90.448
-88.561
-95.3
-97.727
-97.188
-97.188
-96.918
-96.918
-96.918
-96.648
-96.648
-96.648
-96.379
-96.379
-96.109
-96.109
-95.57
-88.021
-96.379
-95.57
-95.57
-95.57
-95.57
-95.3
-95.3
-95.031
-95.031
-95.031
-94.761
-95.031
-93.953
-98.536
-99.884
-93.413
-94.492
-94.222
-94.222
-93.953
-93.953
-93.683
-93.683
-93.683
-93.683
-93.144
-93.953
-87.213
-83.978
-91.796
-93.144
-92.874
-92.874
-92.605
-92.605
-92.605
-92.065
-100.15
-100.15
-100.15
-99.614
-91.526
-91.796
-91.526
-91.526
-91.526
-91.526
-91.257
-91.257
-91.257
-90.987
-90.987
-90.178
-93.413
-99.614
-98.536
-97.727
-102.04
-106.89
-106.89
-101.77
-97.457
-97.188
-102.85
-106.08
-106.62
-98.805
-103.66
-99.075
-102.58
-106.35
-98.266
-96.379
-96.918
-96.109
-103.93
-104.47
-104.47
-104.2
-104.2
-104.2
-112.28
-111.21
-103.93
-112.28
-111.48
-111.48
-111.48
-109.86
-102.31
-103.12
-102.85
-102.85
-102.58
-102.58
-102.31
-102.31
-102.31
-101.23
-106.62
-106.62
-100.96
-101.23
-105.81
-110.94
-104.2
-99.884
-106.89
-109.59
-109.05
-107.97
-115.25
-116.87
-116.6
-115.52
-124.15
-116.6
-123.34
-124.15
-123.61
-131.7
-123.61
-123.61
-123.34
-123.34
-123.07
-123.61
-131.7
-129.54
-121.99
-122.53
-122.53
-121.72
-124.69
-128.73
-120.1
-124.42
-131.16
-125.23
-124.69
-126.57
-119.83
-121.45
-119.83
-124.96
-130.08
-123.34
-119.56
-120.64
-119.29
-125.5
-129
-121.18
-119.02
-119.56
-119.29
-119.02
-119.29
-118.22
-126.57
-119.02
-118.49
-118.49
-118.22
-109.86
-110.13
-110.13
-109.05
-101.23
-101.5
-101.77
-100.15
-92.335
-93.683
-90.987
-83.978
-85.056
-84.517
-84.517
-84.517
-84.247
-85.056
-80.473
-76.159
-72.115
-66.993
-68.88
-63.219
-57.827
-65.915
-62.41
-59.714
-53.513
-50.817
-51.087
-51.896
-44.347
-42.73
-42.999
-42.999
-42.999
-42.999
-42.73
-42.999
-34.642
-34.642
-26.554
-26.284
-17.927
-19.275
-27.093
-26.284
-26.554
-26.284
-26.824
-24.397
-17.657
-17.927
-20.623
-27.093
-26.015
-26.284
-26.284
-26.284
-26.015
-26.824
-21.971
-17.118
-18.197
-17.657
-18.736
-12.805
-8.2216
-16.849
-11.457
-15.501
-18.466
-17.657
-17.927
-17.927
-17.927
-17.657
-17.657
-17.657
-17.657
-17.927
-9.5696
-9.5696
-9.5696
-9.5696
-9.5696
-9.5696
-9.5696
-9.5696
-9.8392
-8.2216
-0.67298
-1.7514
-1.4818
-1.4818
-1.4818
-1.2122
-2.2905
2.2925
3.9101
-2.5601
-1.4818
-0.40339
-6.8736
-4.9865
-4.7169
-12.266
1.2142
7.4148
7.1452
0.67498
-2.021
-1.4818
-1.2122
-2.2905
6.0669
-0.1338
-1.7514
-1.4818
-1.4818
-1.7514
6.3365
6.6061
6.6061
6.3365
-1.7514
-1.2122
-2.021
-10.109
-9.3
-9.5696
-9.5696
-9.5696
-9.5696
-9.3
-10.109
-6.3345
-3.9081
-6.8736
-4.1777
-6.6041
-3.6385
-10.378
-9.8392
-5.2561
-0.67298
-1.4818
-1.2122
-1.4818
-1.2122
-1.4818
-0.94258
-2.2905
5.5277
0.67498
-0.94258
-7.952
-9.5696
-10.109
-1.4818
-8.4912
-9.5696
-9.3
-9.3
-9.3
-9.3
-9.3
-9.3
-9.8392
-17.927
-16.309
-8.4912
-9.5696
-7.952
0.1358
-3.6385
-7.4128
-2.2905
-10.378
-9.0304
-8.4912
-13.074
-14.422
-9.0304
-4.7169
-5.2561
-4.9865
-4.4473
-10.109
-8.7608
-9.0304
-9.0304
-8.7608
-10.109
-2.2905
-6.8736
-9.5696
-9.0304
-9.0304
-9.0304
-9.0304
-8.7608
-9.5696
-0.94258
-8.7608
-9.0304
-9.0304
-8.7608
-0.94258
-9.0304
-0.1338
-2.021
-8.4912
-0.40339
0.40539
6.6061
-1.7514
-1.2122
1.4838
5.7973
-2.021
-0.67298
-0.94258
-0.94258
-0.67298
-1.7514
2.8317
7.954
6.8756
6.8756
7.954
2.023
-1.4818
-0.94258
0.1358
-7.6824
-3.0993
-1.2122
5.5277
7.4148
7.1452
6.8756
7.954
-0.94258
6.8756
-0.40339
-1.2122
7.1452
-0.94258
-0.67298
7.4148
6.8756
7.1452
7.1452
6.8756
8.4932
14.424
6.0669
7.1452
7.4148
4.9885
-2.2905
1.2142
10.65
15.772
14.963
14.963
14.963
14.963
14.694
15.772
10.38
6.6061
6.0669
13.076
9.8412
6.8756
1.2142
-1.7514
-0.94258
-2.021
5.5277
7.1452
6.6061
6.8756
6.3365
14.424
14.963
14.963
6.8756
14.694
6.6061
6.6061
7.4148
14.694
6.0669
6.8756
6.6061
7.1452
4.7189
-0.40339
7.954
5.7973
9.5716
13.076
4.7189
10.65
11.998
5.7973
5.7973
11.189
11.459
4.7189
11.459
15.233
14.155
15.503
9.0324
5.7973
6.8756
5.7973
12.807
15.503
7.6844
6.3365
5.7973
13.885
14.155
21.973
22.782
14.424
14.424
14.424
14.424
14.424
14.424
14.424
13.346
5.5277
6.3365
6.0669
6.3365
6.3365
6.0669
6.3365
5.7973
8.7628
16.042
9.8412
9.5716
11.728
4.7189
7.4148
1.2142
0.94458
11.728
14.694
13.885
14.155
13.885
14.963
7.954
5.5277
5.7973
6.6061
-0.94258
-2.021
-2.5601
5.2581
6.0669
6.3365
-2.021
6.0669
-2.021
6.0669
-2.021
6.6061
5.2581
-2.5601
-1.7514
-3.3689
-10.918
-9.8392
-10.109
-10.109
-10.109
-10.109
-10.109
-10.109
-10.109
-10.109
-10.109
-9.8392
-10.648
-5.7953
-0.94258
-3.0993
3.1013
6.6061
6.8756
0.40539
-1.4818
-8.4912
-4.4473
-1.4818
-2.021
-1.7514
-2.5601
5.2581
6.3365
6.0669
6.0669
6.3365
-2.021
6.0669
6.0669
5.7973
-2.021
6.8756
15.233
22.512
23.051
30.87
30.061
30.061
30.6
27.904
21.703
19.007
16.311
20.086
12.807
14.155
13.615
13.885
13.885
13.885
13.615
14.424
9.5716
-0.1338
-2.8297
-2.2905
-2.2905
-2.2905
-2.2905
-3.0993
3.9101
6.8756
-2.2905
4.9885
-1.4818
-2.5601
-2.2905
-2.2905
-2.2905
-2.2905
5.7973
5.5277
5.5277
6.0669
14.424
12.537
4.9885
5.7973
5.5277
5.5277
5.7973
5.2581
7.6844
14.963
10.92
4.1797
9.0324
14.155
14.424
8.7628
9.5716
10.111
5.2581
0.94458
-3.0993
-3.6385
3.9101
-0.40339
2.5621
5.7973
6.0669
-0.94258
-2.8297
-3.0993
4.4493
5.7973
5.2581
6.0669
-2.5601
5.2581
5.5277
5.5277
13.346
5.2581
5.2581
6.0669
13.076
4.9885
4.4493
-3.3689
-2.021
-4.1777
-13.074
-21.162
-29.52
-37.068
-48.391
-62.949
-69.419
-81.282
-98.536
-113.9
-134.39
-160.27
-181.03
-191.55
-199.9
-202.87
-201.52
-203.41
-190.47
-179.41
-166.74
-136.28
-103.12
-64.028
-14.422
26.826
82.632
140.32
205.57
271.62
329.04
394.55
460.06
525.3
581.65
629.91
669.27
701.08
732.89
753.65
759.04
754.73
733.97
708.36
681.4
643.93
603.22
575.99
563.32
557.66
561.16
543.37
512.36
480.55
432.29
382.15
332.55
281.86
237.65
196.94
154.88
118.76
93.685
61.603
35.453
9.5716
-0.1338
-16.04
-24.667
-40.573
-49.469
-57.557
-57.557
-57.557
-66.184
-73.194
-65.645
-73.194
-65.376
-74.003
-73.194
-71.846
-64.297
-65.106
-64.836
-64.836
-64.836
-64.567
-64.567
-64.567
-64.567
-64.297
-64.567
-63.488
-68.611
-72.924
-72.115
-71.576
-76.159
-86.134
-88.021
-88.83
-80.742
-85.325
-88.021
-87.213
-87.482
-87.213
-86.943
-87.482
-79.394
-78.855
-78.855
-78.855
-78.586
-86.673
-86.404
-86.404
-86.404
-86.134
-86.404
-85.056
-77.238
-78.046
-77.777
-77.238
-80.203
-83.978
-76.429
-77.777
-77.238
-77.238
-77.238
-76.159
-81.282
-84.786
-89.909
-88.83
-84.517
-79.664
-75.89
-75.62
-82.09
-84.786
-83.978
-84.247
-83.978
-83.978
-83.708
-83.708
-83.708
-83.708
-83.438
-83.438
-83.438
-83.169
-91.257
-90.987
-90.987
-90.987
-90.987
-89.639
-83.438
-89.909
-83.169
-89.909
-81.282
-81.821
-84.786
-88.561
-80.742
-82.36
-81.012
-85.056
-90.448
-89.369
-89.369
-89.369
-89.369
-89.1
-89.1
-88.83
-89.1
-88.021
-94.492
-96.918
-97.457
-89.1
-95.57
-89.1
-94.761
-96.379
-95.84
-95.84
-95.84
-95.57
-95.57
-95.57
-87.213
-95.57
-95.031
-95.031
-95.3
-93.683
-87.213
-95.3
-95.84
-103.39
-102.31
-102.31
-102.31
-101.5
-104.74
-110.94
-109.59
-109.86
-109.59
-109.59
-109.59
-109.05
-110.4
-103.39
-105.28
-109.59
-108.51
-108.78
-108.51
-108.51
-108.24
-108.24
-107.97
-107.97
-107.97
-107.7
-107.7
-107.16
-114.98
-115.52
-115.25
-114.98
-114.98
-114.98
-114.71
-114.71
-114.44
-114.44
-113.9
-115.79
-121.45
-112.28
-116.6
-119.83
-115.52
-120.1
-112.28
-112.55
-116.87
-118.49
-111.75
-113.09
-112.55
-112.55
-112.55
-111.21
-117.95
-116.33
-105.81
-103.39
-103.93
-102.85
-109.86
-111.48
-112.02
-104.2
-102.85
-102.85
-103.12
-95.031
-94.492
-94.492
-94.492
-86.134
-94.222
-85.595
-86.134
-85.865
-86.134
-84.517
-77.238
-76.159
-68.611
-69.419
-69.15
-68.88
-69.689
-66.454
-59.984
-61.062
-60.792
-60.523
-61.332
-56.479
-51.626
-52.705
-51.896
-53.513
-46.234
-48.661
-53.783
-45.965
-44.347
-37.877
-35.451
-35.99
-35.72
-35.72
-35.72
-35.72
-35.72
-35.72
-35.72
-35.451
-35.451
-27.363
-35.72
-35.451
-34.642
-27.632
-34.911
-27.363
-36.259
-34.911
-35.181
-35.181
-34.911
-35.72
-31.676
-29.52
-33.024
-25.745
-27.093
-26.554
-27.632
-22.78
-17.927
-19.005
-18.736
-18.736
-18.736
-18.466
-18.736
-18.466
-19.275
-12.266
-10.378
-9.8392
-17.388
-18.466
-19.005
-11.187
-10.109
-10.378
-10.378
-10.378
-10.378
-10.648
-18.197
-9.8392
-10.378
-10.109
-10.378
-10.378
-10.109
-10.378
-10.109
-10.918
-7.4128
-4.4473
-7.952
-4.4473
-8.4912
-0.94258
-2.5601
-1.2122
-6.0649
-10.918
-9.8392
-10.918
-5.2561
-1.4818
-2.2905
-2.021
-2.021
-2.2905
-1.2122
-8.2216
-11.457
-2.5601
-8.7608
-10.378
-10.109
-9.8392
-10.378
-2.2905
-1.7514
-10.109
-9.8392
-1.7514
-2.021
-2.5601
-10.378
-9.8392
-10.109
-9.8392
-9.8392
-9.8392
-9.8392
-9.8392
-9.8392
-9.8392
-9.8392
-9.8392
-9.8392
-9.8392
-9.5696
-10.648
-5.7953
-1.2122
-0.94258
-7.6824
-4.4473
-7.1432
-4.4473
-6.6041
-10.378
-9.8392
-8.7608
-17.118
-10.918
-16.04
-18.197
-17.927
-17.388
-25.206
-26.284
-17.927
-17.657
-17.657
-9.3
-1.7514
-9.3
-1.4818
-9.8392
-10.648
-16.849
-10.109
-17.118
-8.4912
-9.8392
-9.3
-9.5696
-9.3
-9.3
-9.3
-9.3
-9.3
-9.3
-9.5696
-8.2216
-14.692
-12.805
-13.344
-17.927
-17.927
-11.996
-9.0304
-8.4912
-15.231
-17.388
-17.927
-10.648
-8.7608
-9.3
-9.0304
-9.0304
-9.3
-9.0304
-9.3
-1.2122
-1.2122
-9.3
-8.7608
-0.67298
-0.94258
-1.7514
-9.5696
-9.0304
-8.7608
-10.378
-18.197
-14.961
-8.2216
-9.3
-9.0304
-8.2216
-12.805
-14.422
-8.4912
-5.5257
-0.1338
-1.2122
-0.94258
-0.67298
-2.021
4.9885
2.5621
-1.4818
-1.7514
5.7973
1.4838
-1.2122
-1.4818
5.7973
7.4148
7.1452
6.8756
7.6844
-0.94258
6.8756
-0.67298
-0.94258
-0.94258
-0.94258
-0.94258
-0.67298
-1.4818
-9.5696
-8.7608
-9.3
-7.6824
-0.1338
-0.94258
-0.94258
-0.40339
-3.6385
-7.952
3.1013
7.1452
10.111
16.581
12.268
1.2142
3.9101
2.5621
3.6405
3.1013
-1.7514
-0.67298
-0.94258
-0.94258
-0.94258
-0.94258
-0.94258
-0.94258
-0.94258
-0.94258
-0.94258
-0.94258
-0.94258
-0.94258
-0.94258
-0.94258
-0.94258
-0.67298
6.8756
-0.94258
7.1452
-1.4818
-1.7514
-8.4912
-0.1338
-1.2122
-0.94258
-0.94258
-0.94258
-0.94258
-0.94258
-0.94258
-0.94258
-0.94258
-0.94258
-0.94258
-0.94258
-0.94258
-0.94258
-0.67298
-1.4818
2.8317
13.885
9.8412
7.4148
0.67498
4.4493
8.4932
0.40539
-1.2122
-0.94258
-0.94258
-0.94258
-1.4818
6.6061
7.1452
7.1452
7.1452
7.1452
-1.2122
-0.94258
-0.67298
8.2236
15.503
14.694
15.772
12.268
-2.021
-2.8297
-8.2216
-0.1338
-1.2122
-1.7514
2.5621
4.1797
1.2142
7.954
7.6844
2.023
3.3709
2.5621
3.3709
3.1013
-2.021
-1.2122
-0.1338
-7.6824
-3.6385
-0.67298
-0.40339
-7.6824
-9.3
-9.5696
-2.8297
7.1452
-0.67298
6.3365
7.4148
-0.94258
-1.2122
-1.2122
-9.3
-8.7608
-0.94258
-0.40339
7.6844
6.8756
6.8756
7.4148
5.5277
-2.5601
1.7534
4.9885
0.40539
7.954
7.4148
3.9101
-2.021
-1.2122
-0.1338
-6.0649
-4.9865
-4.4473
-10.378
-7.952
-14.961
-13.344
-2.5601
-1.4818
4.9885
7.1452
7.6844
0.1358
-0.40339
-8.7608
-2.021
-1.4818
6.8756
-0.94258
6.8756
-0.94258
-0.94258
-0.94258
-0.94258
-0.94258
-0.94258
-0.94258
-0.94258
-1.2122
-0.67298
-2.8297
-8.2216
-0.1338
-1.2122
-0.94258
-0.94258
-0.94258
-0.94258
-0.94258
-0.94258
-1.7514
2.8317
7.954
6.8756
7.1452
7.1452
6.8756
7.954
1.4838
-1.7514
-0.94258
-1.2122
-0.94258
-0.94258
-0.94258
-0.94258
-1.2122
-0.67298
-7.952
-16.849
-17.118
-17.118
-17.118
-9.0304
-17.118
-17.388
-25.476
-24.936
-24.936
-24.936
-24.936
-25.206
-23.319
-16.04
-17.118
-16.849
-16.849
-16.579
-17.388
-13.613
-7.952
-7.952
-12.805
-14.422
-3.3689
-0.1338
-0.67298
-0.67298
0.1358
-5.7953
-9.3
-8.4912
-8.7608
-8.4912
-9.3
-2.021
-0.1338
-0.40339
-1.2122
6.6061
7.6844
7.6844
7.1452
15.503
7.4148
7.4148
-0.67298
-0.94258
-8.4912
-0.1338
-0.67298
-0.94258
0.94458
6.8756
-1.4818
-0.40339
-0.67298
-0.40339
-1.2122
2.2925
7.4148
10.92
13.885
2.8317
-1.2122
-0.40339
-0.94258
0.40539
-6.3345
-3.6385
-4.9865
-9.5696
-8.4912
-8.7608
-8.4912
-8.4912
-8.4912
-8.4912
-8.7608
-8.2216
-9.3
-0.67298
-8.4912
-0.67298
-8.2216
-8.4912
-8.4912
-8.4912
-8.4912
-8.4912
-8.4912
-8.7608
-7.4128
-0.94258
-9.5696
-6.8736
0.94458
-3.0993
-6.6041
-1.7514
-9.5696
-8.7608
-5.5257
0.40539
-0.67298
-0.1338
-0.67298
0.40539
-4.7169
-9.3
-7.4128
-13.074
-18.197
-9.3
-15.501
-4.1777
-6.3345
-2.021
-6.0649
-8.7608
-8.4912
-7.6824
-15.501
-16.309
-16.579
-8.4912
-8.2216
-8.2216
-8.2216
-16.309
-16.04
-16.579
-25.476
-32.215
-34.103
-49.469
-48.93
-58.636
-65.376
-78.046
-101.5
-119.56
-142.21
-160.81
-183.19
-199.09
-212.03
-220.12
-224.17
-223.63
-220.39
-206.1
-190.2
-164.86
-123.61
-89.639
-44.347
-1.4818
52.167
103.66
159.2
216.35
280.78
346.83
411.54
485.4
544.18
593.24
642.31
674.93
698.92
722.65
729.66
728.31
718.6
699.19
666.03
639.07
596.48
566.28
554.42
552.8
543.37
532.58
513.98
478.93
430.41
387
335.78
286.71
235.22
193.7
163.24
124.15
87.484
53.246
31.948
10.111
-9.3
-26.015
-36.259
-44.078
-52.165
-61.062
-62.41
-61.601
-68.88
-77.507
-78.046
-77.777
-77.777
-77.507
-77.507
-77.507
-77.507
-77.238
-77.238
-77.238
-76.698
-78.316
-85.595
-84.786
-84.786
-84.786
-84.517
-84.786
-83.708
-88.021
-89.369
-86.404
-93.144
-91.796
-92.065
-91.796
-91.796
-91.796
-91.257
-92.335
-85.865
-82.63
-83.169
-83.438
-81.821
-90.448
-83.978
-89.1
-90.987
-90.448
-90.448
-90.717
-82.63
-82.09
-82.09
-82.09
-81.821
-73.733
-82.36
-81.551
-81.551
-81.551
-81.012
-82.899
-89.639
-90.717
-97.996
-97.457
-94.761
-88.021
-89.1
-88.561
-88.561
-88.561
-88.291
-88.291
-88.291
-88.021
-88.83
-83.438
-78.316
-85.056
-88.291
-87.482
-87.482
-87.482
-87.482
-86.673
-93.683
-96.109
-87.213
-93.953
-95.031
-94.761
-94.492
-94.492
-94.492
-102.31
-93.953
-94.222
-93.953
-93.953
-93.953
-93.683
-93.413
-95.031
-102.04
-101.5
-99.344
-92.335
-93.413
-92.874
-92.874
-92.874
-92.335
-93.683
-87.213
-91.526
-101.77
-100.96
-94.761
-96.109
-100.96
-98.805
-105.28
-108.24
-107.43
-107.43
-107.16
-107.97
-99.884
-105.01
-114.71
-108.24
-99.075
-98.536
-98.536
-98.266
-98.266
-89.909
-90.448
-97.996
-98.266
-105.81
-107.43
-123.07
-121.18
-121.45
-121.18
-121.72
-119.02
-111.75
-113.63
-109.32
-106.62
-113.63
-112.02
-112.28
-112.02
-112.02
-111.48
-112.82
-106.08
-107.97
-111.21
-116.6
-119.56
-120.37
-111.21
-123.61
-121.45
-117.41
-125.23
-127.11
-119.02
-117.95
-117.95
-117.95
-117.68
-117.68
-117.41
-117.41
-117.68
-125.5
-124.96
-125.23
-123.88
-115.79
-117.14
-114.71
-107.43
-108.51
-107.43
-110.13
-116.6
-115.52
-115.52
-115.52
-115.52
-114.98
-115.79
-110.94
-106.08
-106.62
-107.7
-100.42
-103.93
-101.5
-97.457
-98.266
-97.996
-97.727
-97.727
-97.457
-98.266
-90.448
-89.1
-89.369
-88.83
-89.639
-73.194
-72.655
-72.655
-72.655
-72.655
-72.385
-72.385
-72.385
-72.385
-72.115
-72.385
-70.228
-63.488
-62.14
-54.861
-55.94
-55.67
-55.401
-55.67
-54.592
-59.984
-59.714
-58.366
-64.028
-63.758
-58.636
-54.053
-56.209
-49.2
-47.043
-41.112
-38.147
-38.686
-38.686
-38.686
-38.686
-38.416
-38.955
-31.137
-30.059
-30.328
-30.059
-38.147
-38.147
-30.328
-38.147
-29.52
-30.328
-30.059
-30.059
-30.059
-30.059
-29.789
-29.789
-30.059
-29.25
-32.755
-35.99
-29.25
-27.093
-20.623
-21.701
-21.432
-21.432
-21.432
-21.432
-21.701
-20.623
-26.284
-30.059
-29.25
-29.52
-29.25
-29.25
-29.25
-29.25
-28.98
-29.789
-22.241
-20.893
-21.432
-13.883
-5.2561
-4.9865
-4.9865
-4.9865
-12.805
-4.7169
-13.883
-21.162
-20.893
-20.893
-20.893
-20.893
-21.432
-18.736
-13.883
-21.971
-20.623
-20.893
-20.623
-20.623
-20.623
-20.623
-20.623
-20.623
-20.623
-20.623
-20.353
-21.432
-15.501
-11.996
-12.535
-12.805
-11.457
-19.275
-14.692
-11.187
-19.275
-20.623
-20.353
-20.353
-20.353
-20.353
-20.353
-20.353
-20.353
-20.353
-20.353
-20.084
-20.084
-20.084
-20.084
-20.084
-20.084
-20.084
-20.084
-20.084
-19.814
-20.623
-16.849
-14.422
-17.657
-13.883
-21.162
-19.545
-20.084
-19.814
-20.084
-18.736
-25.206
-23.588
-19.005
-19.545
-20.623
-13.074
-17.118
-20.353
-19.545
-19.545
-19.545
-19.545
-19.545
-19.545
-19.545
-19.545
-19.545
-19.545
-19.545
-19.545
-19.275
-19.275
-19.275
-19.275
-19.005
-20.353
-28.172
-26.824
-28.98
-36.529
-32.755
-26.824
-24.936
-18.197
-19.545
-18.466
-21.432
-32.215
-31.946
-26.015
-27.093
-26.824
-26.554
-27.902
-20.893
-23.588
-27.632
-26.284
-27.632
